i,j,haversine
1,1,714.223703919522
1,2,1938.8266451947
1,3,1408.79577251696
1,4,1944.47733323542
1,5,444.190953239537
1,6,846.659260362396
1,7,1325.13970005243
1,8,481.785129599812
1,9,1558.3095693773
1,10,819.175941656113
1,11,1553.04830568457
1,12,1874.7792078674
1,13,1828.5504252972
1,14,582.75741959401
1,15,1031.90670947379
1,16,613.47986641431
1,17,995.024993463591
1,18,480.967704732329
1,19,851.94198816673
1,20,337.569713552376
1,21,825.164264197867
1,22,882.127622640744
1,23,1723.57367850674
1,24,1637.53289196938
1,25,885.017517830023
1,26,1709.81495328359
1,27,1519.60564367911
1,28,841.103359568117
1,29,1004.40941736226
1,30,1265.35058234256
2,1,683.643504014275
2,2,1294.33173833946
2,3,845.938094468826
2,4,1301.47044569566
2,5,204.196028065223
2,6,225.068365214769
2,7,708.079168896844
2,8,876.743049548296
2,9,1039.89546882215
2,10,464.081189943913
2,11,937.683005145736
2,12,1227.66908475938
2,13,1192.86583658842
2,14,232.721130109789
2,15,385.071091715571
2,16,717.462730357421
2,17,650.845589788736
2,18,199.965365116075
2,19,605.00801544229
2,20,309.833963865269
2,21,931.311830958792
2,22,818.755716062545
2,23,1116.19149280726
2,24,999.11109972605
2,25,297.671947949649
2,26,1083.66729281921
2,27,879.47931415673
2,28,961.813698516116
2,29,701.873229916812
2,30,830.873089619127
3,1,442.147624478766
3,2,1450.35167605444
3,3,840.477796081141
3,4,1408.52035982699
3,5,243.636618049246
3,6,453.27108176064
3,7,915.114914643988
3,8,671.771232060981
3,9,996.816449013207
3,10,690.326095058769
3,11,1140.72891149981
3,12,1358.42593713197
3,13,1369.86126210623
3,14,16.6201935647156
3,15,537.884246934013
3,16,844.347654965642
3,17,883.295643215321
3,18,311.441593104266
3,19,817.69462430611
3,20,279.252851838191
3,21,1074.40454282058
3,22,1001.06676743785
3,23,1321.99730192098
3,24,1174.53372231299
3,25,534.962576543889
3,26,1274.45734880525
3,27,1053.97956338152
3,28,1102.4003229299
3,29,929.534988807882
3,30,1073.30878735631
4,1,998.314335303502
4,2,970.766563531386
4,3,785.488838975543
4,4,1036.27227914219
4,5,542.207772012177
4,6,136.368545571837
4,7,349.890687808431
4,8,1236.79484767094
4,9,1010.71395929767
4,10,407.404035224793
4,11,579.756767468638
4,12,934.972938200118
4,13,850.715859573162
4,14,567.487223951173
4,15,209.019737121526
4,16,846.442888122898
4,17,508.188387549472
4,18,497.800913615079
4,19,560.868398593108
4,20,651.064038398362
4,21,1005.87312412778
4,22,824.153194149517
4,23,756.625083788354
4,24,662.010172454106
4,25,108.053966949808
4,26,731.877460786818
4,27,547.030424776343
4,28,1037.94655230952
4,29,576.108110059129
4,30,568.232790749444
5,1,1456.68290734393
5,2,2632.7265982352
5,3,1728.15402452031
5,4,2364.61589809438
5,5,2086.20923818031
5,6,2211.32261237423
5,7,2485.42729001666
5,8,1703.38222228616
5,9,1568.07246996707
5,10,2536.23898666045
5,11,2636.94755672753
5,12,2449.95303935678
5,13,2680.95777715399
5,14,1859.24245796918
5,15,2110.29543553897
5,16,2657.53524606956
5,17,2720.06495975136
5,18,2163.09055577287
5,19,2672.41711025483
5,20,2068.02118380126
5,21,2891.69221231807
5,22,2852.01974080679
5,23,2791.9697580512
5,24,2536.43406032441
5,25,2302.49696419286
5,26,2678.90293954157
5,27,2452.34930231897
5,28,2915.59610222131
5,29,2773.61114600078
5,30,2853.94866170168
6,1,1264.61028234573
6,2,1136.49532336482
6,3,487.48679305018
6,4,831.360789258053
6,5,1483.17841669575
6,6,1288.99105996124
6,7,1258.63723729808
6,8,1734.54768454074
6,9,282.610397535549
6,10,1665.19414835083
6,11,1309.11649097918
6,12,947.075258021194
6,13,1232.96071285276
6,14,1265.75314359114
6,15,1064.06013969862
6,16,2033.80751356473
6,17,1775.66378350954
6,18,1513.75790095812
6,19,1823.0788351694
6,20,1551.58113935785
6,21,2233.99448451495
6,22,2080.08110527724
6,23,1413.93270320748
6,24,1145.51241671834
6,25,1350.70591752875
6,26,1281.82269740708
6,27,1107.56668148786
6,28,2265.63983092806
6,29,1844.21354185906
6,30,1762.4578813352
7,1,991.236541404199
7,2,1569.05414250864
7,3,1293.23448586363
7,4,1651.21254975871
7,5,360.080629932194
7,6,522.987514050451
7,7,915.856930471735
7,8,967.847765159187
7,9,1494.69859683323
7,10,308.820824811698
7,11,1127.07135214336
7,12,1548.04898487236
7,13,1429.86745869407
7,14,603.370426441705
7,15,761.656563739632
7,16,259.901401087919
7,17,465.922720901751
7,18,291.442767076783
7,19,319.785435255637
7,20,381.189437499987
7,21,477.560274520997
7,22,411.372255290504
7,23,1279.84324209522
7,24,1253.84589167986
7,25,507.003557128731
7,26,1294.5529935023
7,27,1147.14660033037
7,28,507.111884786408
7,29,472.161765587187
7,30,743.411691403214
8,1,906.012705138873
8,2,1154.91109047263
8,3,887.886456242232
8,4,1213.18101842842
8,5,373.572034232035
8,6,87.0087737864102
8,7,525.120203155972
8,8,1089.39147311661
8,9,1103.96290659898
8,10,298.857208537551
8,11,753.063954243439
8,12,1116.69447287778
8,13,1032.75218078848
8,14,456.432759806652
8,15,325.924267169929
8,16,684.894938628745
8,17,458.354125416109
8,18,319.719301134166
8,19,456.385429882093
8,20,480.349332137894
8,21,864.195154757209
8,22,705.8997712221
8,23,925.366458019508
8,24,845.448840006631
8,25,85.1034326443072
8,26,910.290719107023
8,27,731.087778085591
8,28,896.194025188028
8,29,518.155215861936
8,30,609.034229382815
9,1,1212.63253883716
9,2,955.531304749131
9,3,978.953212350465
9,4,1092.43912042682
9,5,685.821479954167
9,6,331.560329528
9,7,301.354943816072
9,8,1407.7085171672
9,9,1206.99800947231
9,10,342.367067165627
9,11,496.077281287178
9,12,965.588600392018
9,13,804.465412097413
9,14,768.890551473496
9,15,424.761122932421
9,16,814.141911027903
9,17,347.039825646453
9,18,621.477078094348
9,19,457.784333839518
9,20,788.528552384749
9,21,925.615761804002
9,22,715.573358965249
9,23,648.203222708844
9,24,640.626170987701
9,25,245.971092424948
9,26,664.894869473147
9,27,548.236871388697
9,28,956.591530747496
9,29,414.763337946622
9,30,337.987350222989
10,1,1205.20288431376
10,2,597.277571281917
10,3,612.399484699573
10,4,650.355968264774
10,5,898.130293977251
10,6,503.366539402803
10,7,218.026891772178
10,8,1533.30008946221
10,9,831.789640383178
10,10,767.854739527074
10,11,339.142845054204
10,12,546.088486361722
10,13,508.295798291828
10,14,845.876892780692
10,15,324.457658630899
10,16,1227.77316493453
10,17,807.169019413852
10,18,868.660157492439
10,19,906.100620114906
10,20,1006.0016412074
10,21,1369.40856189485
10,22,1169.17721029535
10,23,509.583469298781
10,24,313.377668943226
10,25,496.970215057604
10,26,427.754680203588
10,27,193.787208372635
10,28,1401.09991061667
10,29,874.885034293379
10,30,731.100029692684
11,1,1230.86724016607
11,2,760.355153713072
11,3,280.296521003648
11,4,493.930274824902
11,5,1264.6799347784
11,6,988.233395173297
11,7,870.262829092527
11,8,1676.02403466775
11,9,314.269833542505
11,10,1345.40890906895
11,11,905.177187007781
11,12,574.198140442597
11,13,837.222543817968
11,14,1088.34348136356
11,15,749.251534461215
11,16,1756.87645456335
11,17,1430.33411541014
11,18,1275.95070183793
11,19,1499.27318554447
11,20,1351.77442243914
11,21,1937.43594693863
11,22,1762.5911568514
11,23,1009.40056330316
11,24,740.671167834459
11,25,1033.13961342758
11,26,877.979257520796
11,27,704.083766001086
11,28,1969.51719031391
11,29,1499.33397918079
11,30,1384.94007616314
12,1,1834.22299719656
12,2,255.375136091402
12,3,932.249203345028
12,4,212.074202960005
12,5,1657.02061113668
12,6,1272.27763695203
12,7,874.846664141097
12,8,2231.43485320406
12,9,1019.4820772366
12,10,1512.70903886913
12,11,725.959095656706
12,12,225.52511029824
12,13,437.288593160437
12,14,1563.78831818386
12,15,1068.21087257057
12,16,1982.70204872718
12,17,1504.90074592159
12,18,1634.37192095656
12,19,1633.21903371734
12,20,1762.54961521168
12,21,2100.81436244157
12,22,1885.23233822469
12,23,687.406003900082
12,24,541.069007371676
12,25,1265.37493819244
12,26,577.746545531981
12,27,628.809217589963
12,28,2131.4655776375
12,29,1565.86392304973
12,30,1329.7627770257
13,1,1600.57778566934
13,2,156.59930519913
13,3,802.440028587625
13,4,333.162298724421
13,5,1339.94477962065
13,6,942.211869135638
13,7,519.284131587114
13,8,1960.76131542972
13,9,960.669350254621
13,10,1159.14005984749
13,11,377.172968186521
13,12,173.697400512343
13,13,167.649753376815
13,14,1277.30336221733
13,15,760.940353306083
13,16,1630.37431331361
13,17,1148.01060699323
13,18,1309.09828316932
13,19,1276.97787728584
13,20,1447.82585406713
13,21,1744.35575578117
13,22,1528.33013789275
13,23,385.96609729914
13,24,184.711604134848
13,25,925.140479469109
13,26,254.749010908706
13,27,276.778266213652
13,28,1774.92069334321
13,29,1209.18071157483
13,30,979.730185845423
14,1,805.264450500531
14,2,1695.36513932953
14,3,778.862141094717
14,4,1448.98252351216
14,5,1307.87067126321
14,6,1325.61864904813
14,7,1544.01097683016
14,8,1238.98437726443
14,9,640.810153327151
14,10,1684.09961724896
14,11,1687.21102742966
14,12,1517.60872378887
14,13,1733.37432749543
14,14,1060.77992932609
14,15,1187.89397357315
14,16,1908.57829134196
14,17,1851.3284870884
14,18,1371.58246082095
14,19,1833.87813497617
14,20,1327.41634880929
14,21,2138.30230394034
14,22,2049.78190358999
14,23,1840.74790199131
14,24,1585.4517667128
14,25,1413.44059757933
14,26,1727.77856913947
14,27,1501.19074170901
14,28,2166.52363132458
14,29,1911.60256462633
14,30,1947.12665026545
15,1,1375.70586319202
15,2,1464.80658802101
15,3,784.253549297463
15,4,1150.32074541294
15,5,1710.41611153063
15,6,1570.56161987713
15,7,1586.83664383246
15,8,1840.64208885347
15,9,557.015530410453
15,10,1950.89284907396
15,11,1645.89397758762
15,12,1275.82141539602
15,13,1568.29028781826
15,14,1475.71964416102
15,15,1358.94229504002
15,16,2287.25593709154
15,17,2075.67526272053
15,18,1752.23690441671
15,19,2109.33411774733
15,20,1764.58457047852
15,21,2498.24441396978
15,22,2359.70349236349
15,23,1751.96439419703
15,24,1483.56121983887
15,25,1640.18883024732
15,26,1619.73692194825
15,27,1444.17566238221
15,28,2529.28540028284
15,29,2143.3689866424
15,30,2082.15725212454
16,1,1154.56831354559
16,2,1701.25644200212
16,3,1480.71233730711
16,4,1806.96431469298
16,5,541.793824212362
16,6,697.731995815297
16,7,1044.69898588911
16,8,1071.09644922065
16,9,1684.48442722086
16,10,405.170725162381
16,11,1241.46525312291
16,12,1695.43000568486
16,13,1551.89166666775
16,14,788.415213762051
16,15,937.764760179303
16,16,72.4615287670625
16,17,496.55061053994
16,18,479.179461077277
16,19,332.546104226312
16,20,543.022654295326
16,21,289.119570295568
16,22,281.683382774368
16,23,1380.60579736498
16,24,1385.45693208592
16,25,668.097706410542
16,26,1410.95949996837
16,27,1285.41051420112
16,28,317.569844286695
16,29,475.380019809031
16,30,778.398782577686
17,1,590.309026738302
17,2,2130.88524752876
17,3,1219.83638145786
17,4,1941.4195885128
17,5,1232.68948810102
17,6,1434.61740476084
17,7,1803.25913457545
17,8,822.870618357194
17,9,1169.15114976978
17,10,1713.01680048669
17,11,1995.58760030622
17,12,1973.8634135405
17,13,2124.60611530405
17,14,1029.18826412169
17,15,1397.52601335616
17,16,1780.08115509778
17,17,1905.90013468691
17,18,1313.27480006175
17,19,1835.48791140052
17,20,1199.34230846379
17,21,2012.99886542386
17,22,1991.19460538525
17,23,2170.05656974491
17,24,1947.90445736828
17,25,1525.16871686092
17,26,2080.71455311903
17,27,1841.75892741516
17,28,2035.58860579874
17,29,1952.1447166636
17,30,2080.39150348548
18,1,213.118831081922
18,2,1938.03228098618
18,3,1161.41241859427
18,4,1839.36785722232
18,5,685.676681585921
18,6,998.645135777229
18,7,1452.96518532697
18,8,266.920671926048
18,9,1229.37992009096
18,10,1187.79282816077
18,11,1674.27056878897
18,12,1820.14505863519
18,13,1880.01049358891
18,14,558.832584950559
18,15,1057.85773144692
18,16,1175.3298425249
18,17,1384.9030204542
18,18,767.56657698532
18,19,1286.4130135895
18,20,623.23747994335
18,21,1405.00246874927
18,22,1406.56275548631
18,23,1856.01394034019
18,24,1686.59836599784
18,25,1078.82602298327
18,26,1797.79977447618
18,27,1567.78563583107
18,28,1425.82612642801
18,29,1419.96534779873
18,30,1603.05063672083
19,1,1450.22039968062
19,2,362.912851920468
19,3,570.422538191666
19,4,207.224350135904
19,5,1298.18687859462
19,6,933.327629517145
19,7,624.586441292242
19,8,1849.0568711475
19,9,702.02197978138
19,10,1222.48236677187
19,11,572.608480538662
19,12,187.996162572571
19,13,439.218427324537
19,14,1187.65016511539
19,15,711.163865632492
19,16,1679.97497652011
19,17,1253.85114924397
19,18,1283.64617411858
19,19,1359.75310228623
19,20,1400.88076423401
19,21,1823.96781938818
19,22,1621.85823994199
19,23,636.722564370825
19,24,380.354718747857
19,25,942.799407783061
19,26,501.903081840788
19,27,393.34350163848
19,28,1855.62743142226
19,29,1320.19737060772
19,30,1137.10897444568
20,1,1949.86950422989
20,2,237.604223303667
20,3,1073.53533128256
20,4,368.72457910096
20,5,1725.60110743162
20,6,1329.06770845938
20,7,894.003920025582
20,8,2330.90194423657
20,9,1175.4263199021
20,10,1534.02080860261
20,11,711.962456215416
20,12,323.874989079506
20,13,399.338142943688
20,14,1653.10768228163
20,15,1142.77371238608
20,16,2006.09332687446
20,17,1504.65803700102
20,18,1695.81690765223
20,19,1643.07706672322
20,20,1833.12393775616
20,21,2107.42854463397
20,22,1886.29212593822
20,23,632.74774264234
20,24,553.468219956794
20,25,1311.05380968229
20,26,547.508505354837
20,27,660.614772155262
20,28,2137.23559651205
20,29,1561.75482322332
20,30,1304.47975750971
21,1,1134.87892061202
21,2,630.800400923321
21,3,335.446647258897
21,4,518.786784909717
21,5,1002.59292386675
21,6,670.904312830182
21,7,524.134752036452
21,8,1530.64361113823
21,9,538.177817451092
21,10,1007.74765307358
21,11,597.493456889102
21,12,491.944979223607
21,13,630.170732079675
21,14,874.277969876502
21,15,433.026482591687
21,16,1439.06419397248
21,17,1081.28522186426
21,18,997.354506110626
21,19,1158.23679276383
21,20,1101.31790536673
21,21,1606.73712375812
21,22,1422.74624505206
21,23,735.179410389513
21,24,475.23222152176
21,25,702.052349908078
21,26,617.884235554903
21,27,399.647161850465
21,28,1638.82483396171
21,29,1150.19264337252
21,30,1033.70417508452
22,1,621.589757182656
22,2,1302.60164638806
22,3,388.290102496456
22,4,1111.13097977755
22,5,912.280630026993
22,6,857.716504785364
22,7,1069.98910320822
22,8,1089.6884245497
22,9,396.428724984142
22,10,1227.32691162926
22,11,1226.43287744496
22,12,1141.93497648359
22,13,1310.30695265115
22,14,671.193308753924
22,15,708.440871717299
22,16,1503.94331563039
22,17,1385.05322191158
22,18,962.21528020815
22,19,1381.55989976788
22,20,958.896808697408
22,21,1724.98993175033
22,22,1612.30212613151
22,23,1388.64736551282
22,24,1145.35256305126
22,25,942.879219535353
22,26,1284.56387482063
22,27,1050.15400263739
22,28,1754.91732297435
22,29,1447.57707815864
22,30,1468.77578716045
23,1,1039.92561771281
23,2,890.860741363553
23,3,96.0059663276538
23,4,661.688171769296
23,5,1114.72883031085
23,6,880.899974001981
23,7,860.532930528466
23,8,1488.69586074626
23,9,192.391230419913
23,10,1253.66797272798
23,11,943.082725990859
23,12,714.531854983317
23,13,936.924922866148
23,14,921.986007873977
23,15,651.255261647788
23,16,1637.74255499974
23,17,1360.8872759126
23,18,1134.4764737851
23,19,1411.02631487683
23,20,1195.24236208859
23,21,1830.61094632863
23,22,1669.91644768589
23,23,1073.45631417706
23,24,807.143265070544
23,25,938.719627398254
23,26,949.829794796035
23,27,743.493134603912
23,28,1862.47808515696
23,29,1429.47574855005
23,30,1353.35776681995
24,1,1529.25318632522
24,2,2846.65246418208
24,3,1928.78822691764
24,4,2591.303067652
24,5,2170.81421621538
24,6,2339.9577777431
24,7,2651.57354905375
24,8,1703.63011287438
24,9,1786.33043674726
24,10,2642.71700119496
24,11,2816.69367411537
24,12,2667.5265128824
24,13,2883.18378936579
24,14,1958.51544487205
24,15,2262.74318505667
24,16,2717.84732783668
24,17,2832.45826216163
24,18,2250.6986047439
24,19,2770.41732093633
24,20,2139.30013661472
24,21,2949.85543638286
24,22,2931.08023087439
24,23,2978.30819954665
24,24,2729.63138904423
24,25,2431.50260049075
24,26,2870.77735772332
24,27,2639.07994636403
24,28,2971.68061639072
24,29,2881.84537543455
24,30,2987.56502712829
25,1,1342.73821952107
25,2,1155.50672199603
25,3,561.41674460899
25,4,841.466850569311
25,5,1562.75715181256
25,6,1362.58213973301
25,7,1315.00202157739
25,8,1812.96649845457
25,9,362.436267665015
25,10,1737.34479699615
25,11,1354.71098775723
25,12,966.630964447539
25,13,1261.73381195528
25,14,1346.22965946441
25,15,1135.26495134519
25,16,2110.72465506584
25,17,1844.09026645653
25,18,1592.54057603566
25,19,1894.91970045677
25,20,1631.8035625657
25,21,2309.38256654421
25,22,2153.02700683074
25,23,1451.97108213388
25,24,1185.04645616951
25,25,1422.51947011839
25,26,1318.62112016036
25,27,1153.98831921458
25,28,2341.09387458335
25,29,1912.80595442975
25,30,1823.30919665735
26,1,1215.41166380537
26,2,1653.98883593499
26,3,1484.02498957478
26,4,1774.24567875195
26,5,587.787239467517
26,6,688.822168946088
26,7,998.9697089731
26,8,1153.81005955311
26,9,1693.35065344741
26,10,359.557703172504
26,11,1187.1667462729
26,12,1657.23742217342
26,13,1499.83117245739
26,14,830.199945068882
26,15,927.306831636974
26,16,127.001715007098
26,17,421.850070934135
26,18,517.794046093832
26,19,259.934183644853
26,20,603.137440383637
26,21,264.379000311214
26,22,197.242634520264
26,23,1319.66727906992
26,24,1339.05989517407
26,25,647.950584447058
26,26,1356.75279315159
26,27,1243.28043044373
26,28,295.974276414357
26,29,393.946322207646
26,30,700.111516796634
27,1,813.042388355496
27,2,1978.89731369595
27,3,1485.03255193186
27,4,1999.05495579332
27,5,493.66340513652
27,6,883.533607423852
27,7,1352.83002853564
27,8,563.273973293845
27,9,1641.08844312935
27,10,812.135564491191
27,11,1578.25340597326
27,12,1923.09568887307
27,13,1861.74825482835
27,14,659.484260372631
27,15,1082.1421731654
27,16,551.595526420811
27,17,977.195289647145
27,18,516.245027959576
27,19,826.419632170479
27,20,393.850251546575
27,21,751.415320315424
27,22,828.389531044499
27,23,1744.82033884098
27,24,1673.16996380312
27,25,912.874310351196
27,26,1738.50773148386
27,27,1556.90220901228
27,28,765.03749741466
27,29,979.862526758047
27,30,1253.96695091344
28,1,1554.01053725767
28,2,229.727895596156
28,3,698.812424150972
28,4,197.769550277757
28,5,1356.12661475382
28,6,973.555424448262
28,7,604.449402419029
28,8,1938.66337864696
28,9,835.536260747918
28,10,1230.58806286926
28,11,504.99908840729
28,12,75.9779227268666
28,13,317.780605606361
28,14,1265.92998031896
28,15,767.282161540128
28,16,1696.87179150816
28,17,1240.79921932288
28,18,1334.15280832165
28,19,1358.95539781377
28,20,1461.62040786809
28,21,1826.42790358387
28,22,1616.66824509421
28,23,536.870641250782
28,24,305.311768595546
28,25,970.657623716205
28,26,403.511194080059
28,27,357.591278089563
28,28,1857.61864402367
28,29,1304.82141839846
28,30,1096.19830705373
29,1,968.695272835163
29,2,1502.24844454143
29,3,1229.59534903387
29,4,1582.3222844378
29,5,328.244993921539
29,6,454.539108331557
29,7,850.239629380999
29,8,978.40862807399
29,9,1433.30201042935
29,10,259.339681795549
29,11,1063.62310689616
29,12,1479.63914022153
29,13,1364.66442138618
29,14,563.449567931962
29,15,693.597810359503
29,16,322.165724797351
29,17,432.85916196364
29,18,252.137079864386
29,19,301.577715027151
29,20,368.35396125829
29,21,530.267311393865
29,22,438.358526401395
29,23,1218.84110042111
29,24,1187.34087431915
29,25,438.176657311653
29,26,1230.463620967
29,27,1079.84635821076
29,28,560.775064259489
29,29,448.515389053629
29,30,702.966492830927
30,1,783.425549701743
30,2,1512.36571902614
30,3,595.690716393295
30,4,1269.96348541489
30,5,1209.57412153973
30,6,1182.89816882643
30,7,1371.73955020151
30,8,1243.32926198983
30,9,462.864428568613
30,10,1550.93488914299
30,11,1508.63559504893
30,12,1335.36219683342
30,13,1550.04459396974
30,14,962.805506114668
30,15,1028.45013213347
30,16,1808.41777557531
30,17,1710.2402869906
30,18,1266.66181042683
30,19,1704.19652320449
30,20,1242.35464087463
30,21,2033.8469621939
30,22,1930.53797375267
30,23,1659.99397293143
30,24,1403.31955314019
30,25,1268.11305871442
30,26,1545.83966407296
30,27,1320.71480132242
30,28,2063.09627460619
30,29,1772.58421361131
30,30,1790.28803938317
31,1,2125.43079514311
31,2,3046.54644955014
31,3,2210.78513432346
31,4,2744.010702589
31,5,2736.24992088386
31,6,2810.87748976457
31,7,3019.02047777526
31,8,2400.61023120914
31,9,2011.70527992251
31,10,3158.54459569923
31,11,3139.51370080147
31,12,2857.44603581031
31,13,3127.58787503254
31,14,2499.07946738233
31,15,2676.6011268101
31,16,3322.03037015733
31,17,3333.1697377118
31,18,2809.46164763682
31,19,3302.66504224933
31,20,2729.22894512026
31,21,3556.37416802889
31,22,3499.61704396678
31,23,3276.42133892233
31,24,3009.9951613457
31,25,2899.92593384619
31,26,3152.41425094299
31,27,2943.41476954536
31,28,3581.67523483148
31,29,3391.17274115607
31,30,3436.56844575069
32,1,576.246780770257
32,2,2026.46973544662
32,3,1109.02905684381
32,4,1828.2600565259
32,5,1210.46606934521
32,6,1378.98023952242
32,7,1725.10677743799
32,8,877.628051842213
32,9,1048.3957951399
32,10,1676.43399161233
32,11,1910.56683553696
32,12,1865.85007882221
32,13,2026.92834671483
32,14,992.576883273281
32,15,1323.32025601048
32,16,1777.06682124523
32,17,1866.11848970576
32,18,1288.98593226362
32,19,1805.62030644269
32,20,1188.11470971091
32,21,2011.23440347355
32,22,1975.0577617183
32,23,2082.52416874529
32,24,1853.87668439277
32,25,1470.31472331281
32,26,1988.89710300754
32,27,1750.5451215352
32,28,2035.21075466314
32,29,1915.51776866273
32,30,2026.89038845599
33,1,1656.39245308363
33,2,2155.00625195971
33,3,2036.28036133933
33,4,2305.38655586986
33,5,1088.06174405238
33,6,1242.44459200608
33,7,1513.36032628024
33,8,1460.27032911392
33,9,2242.87942593587
33,10,895.67813853192
33,11,1675.28798752214
33,12,2179.23550915374
33,13,1989.04850762348
33,14,1335.28127323781
33,15,1480.53436536608
33,16,492.026201762184
33,17,882.9709749223
33,18,1033.28258810382
33,19,756.989719446641
33,20,1066.55397673647
33,21,293.460151480324
33,22,501.449738775816
33,23,1781.43694290126
33,24,1846.17142605103
33,25,1198.74192294238
33,26,1841.66159025427
33,27,1761.3092706224
33,28,261.414327590128
33,29,825.745933232161
33,30,1106.46807175116
34,1,1656.94640106907
34,2,130.01935254946
34,3,805.259597454689
34,4,215.578638981435
34,5,1438.88555950268
34,6,1048.53599527732
34,7,646.391141474259
34,8,2035.85765251666
34,9,936.68230464973
34,10,1283.56556027417
34,11,510.426276791814
34,12,60.8440185720026
34,13,262.295167082485
34,14,1359.0884696379
34,15,852.500345245979
34,16,1753.54045766937
34,17,1278.59709261657
34,18,1412.91696640953
34,19,1404.91299812013
34,20,1545.55010659064
34,21,1872.65736045338
34,22,1658.15542847632
34,23,504.860406031941
34,24,317.435834466442
34,25,1038.40839970636
34,26,379.562861627684
34,27,399.754576810954
34,28,1903.41232138569
34,29,1340.41970670528
34,30,1113.18743324937
35,1,1158.79938796726
35,2,1649.17546605628
35,3,823.582280551808
35,4,1358.05518300281
35,5,1592.74061426367
35,6,1531.052562603
35,7,1646.63756061788
35,8,1606.12002075311
35,9,612.269108472698
35,10,1907.34085337244
35,11,1746.92312806944
35,12,1461.06149123618
35,13,1725.08358150296
35,14,1347.13387532891
35,15,1350.0964375589
35,16,2189.03833773588
35,17,2055.2489315553
35,18,1646.8127362535
35,19,2063.43077490024
35,20,1629.0518993006
35,21,2411.77168761238
35,22,2298.58509213075
35,23,1877.07564505159
35,24,1609.41796728988
35,25,1611.3261418403
35,26,1751.34799846531
35,27,1547.99802186713
35,28,2441.51776632782
35,29,2120.04893972199
35,30,2106.04547059575
36,1,570.127226633513
36,2,1691.7091688992
36,3,1152.54451145669
36,4,1686.52349099464
36,5,204.384021004803
36,6,610.512013724086
36,7,1095.86820410956
36,8,539.678530175865
36,9,1309.92588082634
36,10,670.411146388762
36,11,1325.62205719846
36,12,1620.68353024434
36,13,1589.23485740392
36,14,326.924374732036
36,15,778.455094764231
36,16,633.013233775698
36,17,863.480465426459
36,18,266.031267927787
36,19,747.05117380963
36,20,98.0702470269376
36,21,866.570701680105
36,22,854.465677784645
36,23,1500.93565672392
36,24,1396.03568413325
36,25,662.03138401569
36,26,1476.66518774075
36,27,1276.68803741174
36,28,890.057016391471
36,29,889.213857112445
36,30,1110.3718616514
37,1,1421.39526885331
37,2,1528.7728640401
37,3,1524.59190063258
37,4,1695.70926390276
37,5,778.980270270279
37,6,731.459987982919
37,7,897.697455898758
37,8,1414.70161490264
37,9,1746.41411223937
37,10,351.251350090508
37,11,1047.67549189708
37,12,1562.56704996771
37,13,1360.78248688246
37,14,998.485914989507
37,15,946.683323108319
37,16,394.175489921057
37,17,261.403157407084
37,18,698.660549293298
37,19,194.537893711982
37,20,823.426354200635
37,21,367.209805271515
37,22,139.777798228021
37,23,1152.57464147337
37,24,1223.30084395592
37,25,661.077738628755
37,26,1213.10939735508
37,27,1145.02272170293
37,28,392.693821738846
37,29,198.520819535853
37,30,483.376134465493
38,1,1138.66204501677
38,2,1185.09826669568
38,3,428.28428823853
38,4,896.457557228506
38,5,1386.36527786013
38,6,1219.56778646653
38,7,1236.7938974405
38,8,1609.09556958561
38,9,201.754361422058
38,10,1599.13031414785
38,11,1309.89379993444
38,12,996.897309917234
38,13,1265.085853213
38,14,1161.84123552285
38,15,1004.13637661187
38,16,1949.57431758504
38,17,1720.55811045547
38,18,1421.66585592468
38,19,1757.55518848997
38,20,1449.7094221374
38,21,2155.50784208091
38,22,2010.39720959263
38,23,1428.4462126701
38,24,1159.39253039125
38,25,1286.97346644718
38,26,1299.54415887496
38,27,1108.46872752967
38,28,2186.86143779005
38,29,1788.42721688988
38,30,1727.30709315611
39,1,1097.76619075852
39,2,891.844964560821
39,3,166.983408668797
39,4,641.403457545482
39,5,1187.39868267977
39,6,951.396361775783
39,7,911.267945165178
39,8,1550.88110163737
39,9,172.885872290814
39,10,1322.61191447927
39,11,980.200953997752
39,12,709.934364540637
39,13,951.660167804192
39,14,993.115616837359
39,15,719.953460304878
39,16,1709.8474835123
39,17,1426.37768070984
39,18,1207.32776235366
39,19,1479.61834163505
39,20,1267.45361401689
39,21,1901.72068820066
39,22,1739.30224982894
39,23,1102.27634356267
39,24,833.859411918864
39,25,1007.61919481445
39,26,975.36162691672
39,27,778.962842432549
39,28,1933.6192876822
39,29,1495.11817243214
39,30,1411.00329855794
40,1,1635.85428753774
40,2,393.121291667416
40,3,706.449186199933
40,4,65.5366110785181
40,5,1528.66424432745
40,6,1169.8329080714
40,7,848.51840457239
40,8,2052.95367366099
40,9,774.457817647871
40,10,1458.1668922423
40,11,760.729178193162
40,12,225.57867946679
40,13,543.190322243367
40,14,1405.90666753387
40,15,944.649102306625
40,16,1917.13618522939
40,17,1482.91643404626
40,18,1517.04363003128
40,19,1593.38415907775
40,20,1629.75661386001
40,21,2058.80927710074
40,22,1854.33247159928
40,23,781.3492930413
40,24,561.033455369734
40,25,1180.23733866289
40,26,651.35225169542
40,27,606.211782163007
40,28,2090.3674124242
40,29,1548.32037394825
40,30,1349.61118906664
41,1,1357.44463820483
41,2,2985.9157373194
41,3,2069.81969626707
41,4,2787.6025759813
41,5,1963.1807422548
41,6,2238.33899361288
41,7,2641.67645590962
41,8,1330.25227263223
41,9,1996.7989024444
41,10,2464.6011996195
41,11,2841.82642049991
41,12,2826.66354221233
41,13,2979.85790427254
41,14,1806.05856226869
41,15,2233.37256284389
41,16,2419.13861333384
41,17,2661.69260587796
41,18,2045.29709756766
41,19,2564.2248150454
41,20,1900.00440834878
41,21,2637.01508446777
41,22,2670.0863157506
41,23,3018.54449115459
41,24,2801.73151520276
41,25,2325.50992255096
41,26,2933.02243757906
41,27,2693.94643244617
41,28,2653.11438677072
41,29,2697.9756247807
41,30,2868.91200899247
42,1,333.631647253515
42,2,1742.54276279292
42,3,1079.21635438332
42,4,1690.57393767063
42,5,374.708815449194
42,6,724.174683942055
42,7,1200.29608826374
42,8,380.736694643057
42,9,1202.08886664182
42,10,876.483383111347
42,11,1427.94326730623
42,12,1646.97457290521
42,13,1662.38144470658
42,14,309.172047692072
42,15,830.523755133404
42,16,877.331934563104
42,17,1073.33703172005
42,18,455.656247037933
42,19,972.003940630966
42,20,308.943086454672
42,21,1110.3827161154
42,22,1096.79856806389
42,23,1608.47961541063
42,24,1467.0372207234
42,25,796.047651411303
42,26,1565.15705472685
42,27,1346.4442251424
42,28,1133.30832425442
42,29,1106.68432313815
42,30,1299.89553415582
43,1,612.808058244353
43,2,1940.76483187957
43,3,1360.3603326396
43,4,1927.14178274476
43,5,453.218330113416
43,6,860.26505316691
43,7,1345.03649956866
43,8,373.555068042697
43,9,1497.68361983202
43,10,880.68857863897
43,11,1574.60358944875
43,12,1866.18176398102
43,13,1839.42015181027
43,14,542.539758940952
43,15,1025.63475512944
43,16,717.793075050737
43,17,1064.52846963817
43,18,506.439106988864
43,19,929.319252694284
43,20,344.490419508069
43,21,934.360885421508
43,22,980.093261047681
43,23,1748.98867167632
43,24,1646.1378345762
43,25,908.959268990929
43,26,1726.5693902738
43,27,1526.69103846361
43,28,951.255265983581
43,29,1079.67907195984
43,30,1327.10409753263
44,1,1066.55350583357
44,2,1010.53083562321
44,3,221.340449292272
44,4,748.631922984928
44,5,1223.78115221396
44,6,1022.34738811707
44,7,1021.57154802641
44,8,1529.49163324316
44,9,61.9948446179567
44,10,1399.31995796411
44,11,1099.42246098105
44,12,826.673669291717
44,13,1073.81567508519
44,14,1014.05483790158
44,15,799.446387117472
44,16,1767.77643948851
44,17,1513.64113204947
44,18,1251.20719100664
44,19,1557.39454308683
44,20,1296.44786981258
44,21,1967.09894934312
44,22,1813.63267131247
44,23,1224.0328906294
44,24,955.874038134875
44,25,1085.23236004252
44,26,1097.57834345137
44,27,898.700800453689
44,28,1998.75997531458
44,29,1581.92075257492
44,30,1513.18362503236
45,1,1304.35156810882
45,2,2751.39618028621
45,3,1825.201850207
45,4,2519.06388699977
45,5,1945.70232606386
45,6,2149.293171823
45,7,2495.8200953326
45,8,1433.62842828943
45,9,1711.69941536334
45,10,2430.46078784489
45,11,2675.3162158191
45,12,2579.50257541192
45,13,2770.47135923131
45,14,1747.08886979949
45,15,2096.20560105482
45,16,2472.64141525553
45,17,2623.75269540565
45,18,2027.0451806482
45,19,2550.69984437928
45,20,1905.08082858687
45,21,2702.31997126239
45,22,2696.88625476103
45,23,2843.82312880827
45,24,2605.91559544823
45,25,2240.28344118402
45,26,2744.17200730437
45,27,2507.83617378316
45,28,2722.83536428717
45,29,2669.46221494061
45,30,2796.37742498088
46,1,1278.81433597692
46,2,2262.44988061919
46,3,1375.39572277783
46,4,1985.64994290902
46,5,1868.99334754414
46,6,1935.05560838023
46,7,2161.96640841467
46,8,1615.10380218497
46,9,1199.59263818266
46,10,2282.69469571889
46,11,2298.00539625628
46,12,2077.37115952227
46,13,2320.32642182571
46,14,1628.43177311292
46,15,1806.66931810684
46,16,2461.44153783845
46,17,2456.91729527427
46,18,1940.17842378775
46,19,2427.68493601971
46,20,1869.02178342122
46,21,2695.11670520981
46,22,2628.99721839139
46,23,2445.61974152818
46,24,2184.76397696968
46,25,2024.37710342838
46,26,2327.7759816027
46,27,2107.50857991855
46,28,2721.4250377802
46,29,2514.96285624892
46,30,2564.1026511311
47,1,851.237288759783
47,2,1424.07946692739
47,3,519.77915960512
47,4,1173.29060394379
47,5,1229.15846582896
47,6,1166.56957304038
47,7,1319.1289851024
47,8,1317.47195643972
47,9,365.147148413569
47,10,1541.05745266514
47,11,1444.15732216615
47,12,1244.43486875564
47,13,1469.40340819508
47,14,985.361862854805
47,15,995.428463539416
47,16,1823.08432333839
47,17,1692.49261913708
47,18,1281.05816947987
47,19,1696.6167240997
47,20,1270.51400566555
47,21,2044.65439920432
47,22,1930.60722198646
47,23,1589.96664723744
47,24,1329.40003490232
47,25,1248.58912876228
47,26,1472.36556639629
47,27,1252.16087536239
47,28,2074.54526858444
47,29,1756.51185735725
47,30,1756.28333951578
48,1,821.510107640926
48,2,2136.26960316692
48,3,1209.99470611387
48,4,1908.78451316505
48,5,1447.71500345957
48,6,1586.87464235191
48,7,1898.002392299
48,8,1119.17385822756
48,9,1104.31914321148
48,10,1901.49120463776
48,11,2069.21763367135
48,12,1965.30259613425
48,13,2155.8370900696
48,14,1221.81880782251
48,15,1506.63259545881
48,16,2021.86621982023
48,17,2087.65237170675
48,18,1524.64419441111
48,19,2035.56760001613
48,20,1430.91350043192
48,21,2256.22529969108
48,22,2213.54558715698
48,23,2234.86865758907
48,24,1993.24462941805
48,25,1678.40831165929
48,26,2132.41854586186
48,27,1897.32332205519
48,28,2280.66231416728
48,29,2139.68415410515
48,30,2233.55915920847
49,1,777.067749994452
49,2,1637.63064563545
49,3,719.100661937467
49,4,1394.84293947827
49,5,1260.16898021238
49,6,1268.20711054678
49,7,1482.61922460815
49,8,1220.59263215267
49,9,587.134176418134
49,10,1628.76878360123
49,11,1625.83938198423
49,12,1460.82079268744
49,13,1673.72982405159
49,14,1012.72562444334
49,15,1127.71315820129
49,16,1860.98575631496
49,17,1794.47177439726
49,18,1322.35467297034
49,19,1779.35347417804
49,20,1283.08074950607
49,21,2089.77125386058
49,22,1997.67652670873
49,23,1779.6781071174
49,24,1524.82564922839
49,25,1355.60401162199
49,26,1667.06256904743
49,27,1440.08131911784
49,28,2118.26076109719
49,29,1855.17434354584
49,30,1887.51464956454
50,1,755.711070404215
50,2,1201.94336170478
50,3,276.006393864746
50,4,992.250037202884
50,5,993.8897509378
50,6,884.716209315204
50,7,1032.66201606523
50,8,1221.91416288877
50,9,260.778290993652
50,10,1262.87855799257
50,11,1168.89759786243
50,12,1034.15815548572
50,13,1223.96164564217
50,14,761.965176036216
50,15,705.22097745392
50,16,1573.12183936483
50,17,1407.85051787163
50,18,1035.96819569539
50,19,1419.95823131829
50,20,1050.8448641392
50,21,1787.91441723067
50,22,1660.93756724527
50,23,1322.54718247207
50,24,1069.4075819133
50,25,964.009103534938
50,26,1211.15387928915
50,27,982.890752643196
50,28,1818.56521701197
50,29,1472.84340991469
50,30,1465.45128376105
51,1,1315.66092620349
51,2,1808.76049546324
51,3,1641.46126187491
51,4,1935.19585207215
51,5,711.100436846607
51,6,849.574725806066
51,7,1155.66519067051
51,8,1199.26789352538
51,9,1848.26140376236
51,10,519.372976815371
51,11,1337.7381283724
51,12,1816.50371244632
51,13,1651.51157609272
51,14,958.060300200648
51,15,1088.66303816798
51,16,114.832545887825
51,17,555.650504063992
51,18,649.176753515602
51,19,403.023823359041
51,20,707.028675746037
51,21,120.292418998001
51,22,220.461512054643
51,23,1463.63246578247
51,24,1494.7506868948
51,25,810.375996907234
51,26,1507.0007104616
51,27,1401.2933093474
51,28,147.700102660617
51,29,514.867934679879
51,30,821.118495866058
52,1,984.35985568251
52,2,1345.20171121655
52,3,485.470951077068
52,4,1075.50831411157
52,5,1315.6103734527
52,6,1210.34216156754
52,7,1307.90501325992
52,8,1453.34139478218
52,9,284.0324606966
52,10,1589.81411165224
52,11,1411.73716531559
52,12,1160.65982565013
52,13,1406.44607690245
52,14,1077.46347344938
52,15,1018.65588769564
52,16,1900.44299695532
52,17,1729.83849730951
52,18,1361.30105566619
52,19,1747.36114255465
52,20,1365.82402033024
52,21,2116.61791517799
52,22,1989.90232613812
52,23,1546.58085006658
52,24,1280.67100628035
52,25,1287.13819816483
52,26,1423.36599917939
52,27,1214.17278288094
52,28,2147.16959207832
52,29,1795.74445900764
52,30,1770.37016857279
53,1,830.434024992677
53,2,1143.63714260466
53,3,219.454047461015
53,4,923.800874557003
53,5,1039.88050219196
53,6,902.243811615673
53,7,1012.42447835274
53,8,1295.1506256624
53,9,186.572071382423
53,10,1282.48677268357
53,11,1136.02827479517
53,12,972.118882917334
53,13,1173.96543117813
53,14,814.196949631648
53,15,708.279485441912
53,16,1610.22566015288
53,17,1419.72045691604
53,18,1077.55332670411
53,19,1440.47451870911
53,20,1102.05568368739
53,21,1821.04314062969
53,22,1686.3883211176
53,23,1284.03235354455
53,24,1026.17718449296
53,25,977.569897922569
53,26,1168.79050937492
53,27,945.330027865514
53,28,1852.03617091307
53,29,1485.8428507541
53,30,1462.40019769208
54,1,900.095023766291
54,2,2516.25127501153
54,3,1605.19036388157
54,4,2326.11505276503
54,5,1525.5490378546
54,6,1776.82378540564
54,7,2170.61142325374
54,8,963.344700827312
54,9,1546.57284648222
54,10,2022.4715540237
54,11,2369.18215548036
54,12,2359.63990078972
54,13,2507.37949145616
54,14,1351.07733579066
54,15,1762.61786226668
54,16,2022.56184089758
54,17,2218.77889786797
54,18,1607.84838718801
54,19,2131.49619121368
54,20,1472.78521401886
54,21,2248.86367036735
54,22,2258.4649333953
54,23,2545.58315045628
54,24,2328.66495981938
54,25,1865.34985793814
54,26,2459.79766043711
54,27,2220.72194345923
54,28,2267.95840437082
54,29,2259.08800535664
54,30,2414.24126810768
55,1,1573.71291403507
55,2,287.575080835174
55,3,680.986727214412
55,4,98.8031474080661
55,5,1416.18919232759
55,6,1044.14462692368
55,7,699.925364313001
55,8,1973.3640403561
55,9,792.195091349839
55,10,1317.56300269205
55,11,609.28619202516
55,12,98.4114427571035
55,13,409.89145196793
55,14,1310.61829817634
55,15,827.584775991801
55,16,1780.47068488872
55,17,1335.62846264778
55,18,1399.08496235172
55,19,1449.64419922967
55,20,1519.83250618369
55,21,1916.26296845223
55,22,1709.20897159303
55,23,638.243120053475
55,24,409.651527424173
55,25,1047.94905044015
55,26,505.926977454946
55,27,455.645023911418
55,28,1947.65595535626
55,29,1400.45783803514
55,30,1197.94370289402
56,1,1525.79943282562
56,2,504.598175456206
56,3,583.721950353596
56,4,186.960751028243
56,5,1462.86705672088
56,6,1124.54944529433
56,7,857.256188606582
56,8,1953.62738491392
56,9,636.808778238874
56,10,1437.39460472492
56,11,806.167078196125
56,12,319.421223609248
56,13,632.682645422239
56,14,1322.78752621196
56,15,890.636307985628
56,16,1885.67357405052
56,17,1480.58867693267
56,18,1458.10729689156
56,19,1579.58978727705
56,20,1560.40642781917
56,21,2039.98813890232
56,22,1843.28669158193
56,23,854.90800963636
56,24,610.316660675576
56,25,1145.39998407585
56,26,720.846731436799
56,27,629.446149889641
56,28,2071.87000755929
56,29,1547.74130871721
56,30,1372.4235695443
57,1,1120.93740703796
57,2,1522.1406478534
57,3,1337.49941044354
57,4,1632.13583747837
57,5,480.449374548521
57,6,540.875669361359
57,7,865.626917850095
57,8,1112.75676146431
57,9,1548.34180333799
57,10,226.03157588928
57,11,1062.70824685614
57,12,1518.29381565658
57,13,1372.76452424159
57,14,712.612664682376
57,15,779.223409102798
57,16,247.493410249283
57,17,340.303054635912
57,18,403.260311925243
57,19,182.611329918908
57,20,517.544911499764
57,21,410.869644754713
57,22,288.225738180784
57,23,1203.88580501131
57,24,1206.38599383667
57,25,500.547993413496
57,26,1232.12920442051
57,27,1107.01320869731
57,28,442.748646315013
57,29,335.955691736658
57,30,623.299810574741
58,1,1581.2432771058
58,2,341.699312311111
58,3,669.134377162233
58,4,57.6840690309704
58,5,1450.12668721879
58,6,1085.83593745819
58,7,758.735882651846
58,8,1989.86210006024
58,9,762.468161593218
58,10,1369.54373052861
58,11,675.035966850704
58,12,157.343926706702
58,13,474.229657471611
58,14,1334.87471813823
58,15,863.702791283182
58,16,1829.67090451082
58,17,1393.14112216949
58,18,1436.23578509226
58,19,1504.08563838939
58,20,1552.36201367497
58,21,1969.78941527358
58,22,1764.81006625235
58,23,704.844133517114
58,24,475.559905281565
58,25,1093.95769038937
58,26,572.730457824092
58,27,516.87505302542
58,28,2001.31304396201
58,29,1458.52161553398
58,30,1260.93043348371
59,1,837.969010280638
59,2,1723.44917945946
59,3,1319.81913793322
59,4,1768.27092767522
59,5,299.808050661139
59,6,633.404769449153
59,7,1085.2212679111
59,8,743.509106799832
59,9,1500.34450279661
59,10,530.994897122213
59,11,1307.38416653006
59,12,1680.81943042609
59,13,1598.02885037015
59,14,532.255921552158
59,15,852.238076081657
59,16,367.576417369088
59,17,701.12909849258
59,18,283.280449320885
59,19,556.90337104833
59,20,247.79239258402
59,21,599.802908588968
59,22,608.709628980305
59,23,1470.40883932197
59,24,1413.06508306223
59,25,649.356760084016
59,26,1470.3978714239
59,27,1299.5405844717
59,28,622.673834369953
59,29,709.346213022012
59,30,974.649135104996
60,1,1077.9876361007
60,2,752.428541127
60,3,174.661578496696
60,4,566.339589346089
60,5,1051.89446377988
60,6,770.083756047782
60,7,696.508920163906
60,8,1504.09614460321
60,9,361.031934123899
60,10,1130.62297139114
60,11,774.304387756423
60,12,587.786005781291
60,13,781.167883177146
60,14,886.988620993295
60,15,531.715203198078
60,16,1538.31672290822
60,17,1223.1878359816
60,18,1060.15787539097
60,19,1285.66345857519
60,20,1141.95307645575
60,21,1720.10230877674
60,22,1548.07454893567
60,23,906.861090379182
60,24,642.207628650648
60,25,817.102332643292
60,26,785.206316741255
60,27,575.041000092267
60,28,1752.16562317105
60,29,1292.15016558328
60,30,1197.57411135296
61,1,1226.13068598855
61,2,1126.81857403631
61,3,450.230172252826
61,4,826.989186533725
61,5,1442.88017960422
61,6,1251.41629197058
61,7,1229.70628446704
61,8,1695.8327185886
61,9,242.340767624932
61,10,1628.23952584496
61,11,1285.63393247717
61,12,937.530474411642
61,13,1218.15514285446
61,14,1225.16415526075
61,15,1027.73152302936
61,16,1994.60802771555
61,17,1740.48800220644
61,18,1473.7764726275
61,19,1786.24854010375
61,20,1511.05875253103
61,21,2195.47131610887
61,22,2042.69845791342
61,23,1394.19733237888
61,24,1125.32467166927
61,25,1313.97853820656
61,26,1262.85873005767
61,27,1083.88906592102
61,28,2227.08504864275
61,29,1808.94378405854
61,30,1731.01413575016
62,1,279.286820830319
62,2,1927.69352236016
62,3,1056.87671738616
62,4,1774.38690343013
62,5,921.621454540969
62,6,1142.47804304508
62,7,1539.27772209183
62,8,581.876270711338
62,9,1062.82275998958
62,10,1405.69138481145
62,11,1743.09305930125
62,12,1785.00544437005
62,13,1901.03683745614
62,14,724.308919236769
62,15,1130.85022854076
62,16,1471.2018392494
62,17,1599.81902393219
62,18,1002.49410665785
62,19,1525.53980932213
62,20,888.079138919437
62,21,1704.70258264
62,22,1679.71098456458
62,23,1921.60318758993
62,24,1716.19667643169
62,25,1231.65301371085
62,26,1842.49636745797
62,27,1604.14623263003
62,28,1727.85786616033
62,29,1644.48923363065
62,30,1783.46051541241
63,1,1160.6598140354
63,2,683.343053285716
63,3,657.144777655178
63,4,749.880994645188
63,5,813.235211448254
63,6,412.159690102808
63,7,174.489407107371
63,8,1467.23553890307
63,9,882.410387974824
63,10,668.553046020673
63,11,359.519412384988
63,12,643.120690456376
63,13,578.406823815641
63,14,779.693359356315
63,15,262.311085411216
63,16,1128.25032913363
63,17,713.247658733087
63,18,779.398089375942
63,19,808.01953578046
63,20,921.860904974007
63,21,1270.41934541579
63,22,1071.60873696412
63,23,539.756365288785
63,24,383.968540044478
63,25,399.579479232768
63,26,479.215561822487
63,27,264.208272844005
63,28,1302.15257669521
63,29,781.469638478058
63,30,656.335152221009
64,1,541.21073519145
64,2,1485.35725181014
64,3,566.726027486525
64,4,1287.77198585385
64,5,963.533681005265
64,6,979.277720886884
64,7,1236.61005469041
64,8,1009.08051501534
64,9,533.85677536839
64,10,1333.68232743943
64,11,1401.69319624126
64,12,1323.32582326762
64,13,1492.94763670568
64,14,716.017280853116
64,15,858.538146512781
64,16,1564.10129270679
64,17,1503.08343946121
64,18,1024.41849958633
64,19,1482.9178026776
64,20,991.032910559921
64,21,1792.08632235944
64,22,1699.24744526493
64,23,1566.63745752661
64,24,1326.41849458274
64,25,1068.31918625397
64,26,1464.8471811674
64,27,1229.2089928338
64,28,1820.7583888666
64,29,1562.5229168331
64,30,1609.89545723796
65,1,1243.18995848793
65,2,1095.65304096959
65,3,443.211927143471
65,4,794.22931590394
65,5,1445.1454066896
65,6,1244.65960183415
65,7,1210.62482713625
65,8,1712.19741546859
65,9,246.078632601846
65,10,1620.1350823266
65,11,1261.83178128981
65,12,906.287403049922
65,13,1189.11737440265
65,14,1230.48790602979
65,15,1018.52400878267
65,16,1991.99492316763
65,17,1729.21623725013
65,18,1474.25612571724
65,19,1777.88493930707
65,20,1515.25556600181
65,21,2190.87769572413
65,22,2035.43541343904
65,23,1367.85885067093
65,24,1099.24366990848
65,25,1305.46853442395
65,26,1236.04284954968
65,27,1060.21893162645
65,28,2222.57297314498
65,29,1797.81885921238
65,30,1714.65543040905
66,1,251.920295452037
66,2,1850.34911353182
66,3,1129.23245257209
66,4,1776.27125711269
66,5,529.552388514854
66,6,865.157199052064
66,7,1332.96772084784
66,8,271.351998352981
66,9,1226.1120119085
66,10,1031.52013674995
66,11,1558.28318559455
66,12,1744.09256905354
66,13,1780.21717526254
66,14,432.992503178003
66,15,949.816333844166
66,16,1015.27492172963
66,17,1228.40962155871
66,18,610.697780314007
66,19,1126.35724114182
66,20,462.223414854895
66,21,1246.01477573567
66,22,1244.44093627042
66,23,1739.67221733507
66,24,1585.31215543794
66,25,940.950940133371
66,26,1689.62194721907
66,27,1465.20993381934
66,28,1267.44442486066
66,29,1261.70288773909
66,30,1453.11471249396
67,1,1296.1862275868
67,2,2024.24335084056
67,3,1765.39902683782
67,4,2127.21023315582
67,5,767.194775655422
67,6,1005.54307447668
67,7,1367.733290343
67,8,1091.14904620885
67,9,1958.56165857351
67,10,727.594603490812
67,11,1562.34872585479
67,12,2017.71517618423
67,13,1873.77363630804
67,14,1008.51501732972
67,15,1244.266797912
67,16,255.918584331798
67,17,797.196246334988
67,18,727.268012480767
67,19,637.294479634016
67,20,726.362565679073
67,21,286.274095548457
67,22,472.640904407544
67,23,1697.31048730074
67,24,1708.49309327831
67,25,984.635505387192
67,26,1731.95124204516
67,27,1608.46955722884
67,28,283.947740315259
67,29,762.343079111287
67,30,1069.79965545638
68,1,985.361623405532
68,2,1561.7923556644
68,3,688.626296308807
68,4,1289.75058163792
68,5,1410.9176225199
68,6,1359.4071626249
68,7,1502.10449031734
68,8,1439.55711321481
68,9,499.502989211257
68,10,1733.41750238208
68,11,1617.35195564174
68,12,1377.11125845156
68,13,1621.69999025465
68,14,1165.0862286494
68,15,1187.03665214192
68,16,2007.85285061581
68,17,1885.4014438942
68,18,1465.63678036286
68,19,1888.68290254865
68,20,1446.81355339946
68,21,2231.32060404896
68,22,2121.07232593409
68,23,1756.749590009
68,24,1492.3378402058
68,25,1441.49671005278
68,26,1635.27249165151
68,27,1421.88305069212
68,28,2260.93573937285
68,29,1949.39638646535
68,30,1947.01262172414
69,1,1252.15322044282
69,2,2902.86674697959
69,3,1992.24358345376
69,4,2712.79454053934
69,5,1851.24567997396
69,6,2133.27199549372
69,7,2543.39919287845
69,8,1212.39837300534
69,9,1929.4554933892
69,10,2353.10843119584
69,11,2746.35849953781
69,12,2746.77136041556
69,13,2891.73346385768
69,14,1698.88266704361
69,15,2134.97287606619
69,16,2301.88978216947
69,17,2550.23548809611
69,18,1933.22585036158
69,19,2450.83627669066
69,20,1786.34936602538
69,21,2519.21184555496
69,22,2553.91298133896
69,23,2924.06910253453
69,24,2711.47141489513
69,25,2219.73496675734
69,26,2841.18587073311
69,27,2602.20456038705
69,28,2535.17161543568
69,29,2585.63637973231
69,30,2760.60017649406
70,1,562.248989214332
70,2,2098.87186688883
70,3,1435.85762147687
70,4,2054.85386500079
70,5,648.888904250692
70,6,1046.19285365193
70,7,1531.48655471445
70,8,162.47372686086
70,9,1543.23799349413
70,10,1107.44412532683
70,11,1761.22880240264
70,12,2008.72887765612
70,13,2010.72856788053
70,14,667.065029245582
70,15,1182.41009619872
70,16,946.338220970419
70,17,1294.63347258524
70,18,714.066455952861
70,19,1162.62757324663
70,20,546.0031463289
70,21,1155.94432785886
70,22,1213.0371825987
70,23,1939.15169586539
70,24,1815.69728034902
70,25,1105.22816355547
70,26,1906.28668745679
70,27,1695.17410311061
70,28,1170.68173156621
70,29,1312.08761310564
70,30,1552.25727446821
71,1,1324.1663391992
71,2,653.70237912012
71,3,375.19617846025
71,4,378.616225366113
71,5,1313.2843130191
71,6,1009.16648936672
71,7,833.351458317856
71,8,1761.24602218348
71,9,429.582821397199
71,10,1351.62345269555
71,11,840.760929311572
71,12,465.570568605982
71,13,742.661922085739
71,14,1152.13196114214
71,15,769.297991027176
71,16,1779.1211870463
71,17,1421.45193833308
71,18,1317.81929782876
71,19,1501.91330706527
71,20,1405.21558321908
71,21,1950.13684117721
71,22,1766.4925249647
71,23,929.90397400906
71,24,664.174276592101
71,25,1044.84909168282
71,26,796.259114267114
71,27,643.398294524042
71,28,1982.23313146397
71,29,1490.15478187912
71,30,1353.45744098337
72,1,928.556870237509
72,2,967.194511661522
72,3,698.84913149371
72,4,1002.36595692198
72,5,528.217369815014
72,6,135.9695403061
72,7,387.102014924761
72,8,1194.86397959459
72,9,922.306563751028
72,10,482.4315082452
72,11,613.746923898812
72,12,913.146467579765
72,13,861.997449072743
72,14,512.99378306545
72,15,120.718199086629
72,16,899.552151705104
72,17,598.055436390286
72,18,497.192509665364
72,19,639.250134177535
72,20,636.773800139869
72,21,1071.77290674992
72,22,899.645278312229
72,23,794.524757469905
72,24,668.46628521301
72,25,167.741097437927
72,26,754.298095545484
72,27,549.196854342988
72,28,1103.86923865798
72,29,665.230555891407
72,30,661.78148755498
73,1,246.192606117594
73,2,1570.50784780999
73,3,856.189319228248
73,4,1492.12066123536
73,5,412.860720697574
73,6,638.747960146802
73,7,1079.62441729957
73,8,555.424107644791
73,9,973.466930321648
73,10,885.032139634182
73,11,1299.6276988161
73,12,1460.82836563893
73,13,1506.8264411174
73,14,204.800732597625
73,15,682.756377531499
73,16,998.670464729579
73,17,1078.88108688845
73,18,490.306641475776
73,19,1008.30520593386
73,20,406.878411603566
73,21,1232.38223603809
73,22,1178.73616731301
73,23,1481.35035992054
73,24,1312.85668393248
73,25,724.171706732512
73,26,1422.82869974743
73,27,1193.63999062333
73,28,1258.65066604968
73,29,1124.03364984241
73,30,1268.21405555832
74,1,1984.73713167127
74,2,2926.19198208895
74,3,2080.60995544561
74,4,2627.2221448036
74,5,2595.33103294882
74,6,2672.00002787087
74,7,2885.49347698844
74,8,2263.54087260365
74,9,1884.75599025345
74,10,3018.57260849812
74,11,3009.18571281312
74,12,2737.43337899563
74,13,3003.43429737843
74,14,2358.30963833547
74,15,2539.91291354738
74,16,3181.10405147874
74,17,3193.73231551361
74,18,2668.60324755996
74,19,3162.37486361873
74,20,2588.29038178889
74,21,3415.44277049702
74,22,3358.79584565324
74,23,3148.20746943116
74,24,2882.56988852542
74,25,2761.23333155766
74,26,3025.22702172616
74,27,2813.99646533507
74,28,3440.76183931355
74,29,3251.50869274291
74,30,3299.21284001624
75,1,473.566688831102
75,2,1627.74760460727
75,3,712.251364070449
75,4,1433.84764258798
75,5,985.859807435334
75,6,1057.2902360541
75,7,1352.32817632136
75,8,924.939887273722
75,9,674.884865901892
75,10,1394.45193763299
75,11,1526.73706974285
75,12,1467.64721002706
75,13,1630.47459585287
75,14,741.59197595954
75,15,962.00336253578
75,16,1584.38004322157
75,17,1572.27129842973
75,18,1054.02813824198
75,19,1538.05769576626
75,20,997.497309728153
75,21,1816.19907142674
75,22,1740.53770004232
75,23,1695.09935025698
75,24,1460.29390331799
75,25,1148.19924870109
75,26,1597.10618487514
75,27,1359.87277634543
75,28,1843.63510775457
75,29,1628.60677126528
75,30,1698.97776876112
76,1,988.338618569605
76,2,968.453839667519
76,3,771.874153536601
76,4,1029.59094598798
76,5,540.225613151314
76,6,133.183262425477
76,7,352.994096532585
76,8,1231.16467183416
76,9,996.928042002485
76,10,418.947744511186
76,11,582.885502208649
76,12,929.96079745339
76,13,850.565299849246
76,14,559.539994803226
76,15,195.007157997914
76,16,854.97613195979
76,17,521.995324235558
76,18,497.740673495277
76,19,573.041476138964
76,20,649.21394573051
76,21,1016.36743960458
76,22,835.998856367365
76,23,760.587673348341
76,24,660.931968442625
76,25,115.088262165909
76,26,733.348155080098
76,27,545.120925861554
76,28,1048.4525807302
76,29,589.826884724725
76,30,582.084416319777
77,1,1393.52063499361
77,2,1569.79946335369
77,3,1534.01187075384
77,4,1728.74784856542
77,5,752.007505088722
77,6,735.703084383687
77,7,932.33136522949
77,8,1371.24770453966
77,9,1753.79329938154
77,10,356.047542827346
77,11,1089.97529500432
77,12,1598.27774616468
77,13,1403.84795601705
77,14,978.170031934145
77,15,957.812554300317
77,16,336.758943005479
77,17,297.979442392726
77,18,673.214423120195
77,19,198.041803161529
77,20,789.973001587143
77,21,314.433835461398
77,22,86.1665778642365
77,23,1199.84578659664
77,24,1261.96453884926
77,25,670.457106504593
77,26,1256.61829706954
77,27,1180.25045050841
77,28,341.353287596163
77,29,241.046650051368
77,30,536.142062844285
78,1,978.089853629712
78,2,1789.38089252842
78,3,1442.65182146254
78,4,1856.14425373681
78,5,431.937423594206
78,6,718.246906582549
78,7,1139.57751671255
78,8,847.450289498761
78,9,1629.46386842747
78,10,536.237111870772
78,11,1353.86793753807
78,12,1759.9793589548
78,13,1654.20453778965
78,14,671.539033393865
78,15,948.873560880129
78,16,243.964997000399
78,17,678.306650583116
78,18,399.535036023577
78,19,520.038518211377
78,20,390.418978213739
78,21,467.963037815771
78,22,511.371259739743
78,23,1508.30782447239
78,24,1475.26432809568
78,25,717.929377340391
78,26,1520.61491337162
78,27,1365.98972363341
78,28,488.495082671166
78,29,672.502791967934
78,30,960.601826688244
79,1,1478.34313534711
79,2,526.602002160458
79,3,915.370815093145
79,4,731.024259744103
79,5,1071.70967852195
79,6,666.714228876481
79,7,181.234887304339
79,8,1761.58739332444
79,9,1126.49077853716
79,10,786.175708029771
79,11,51.5440708387956
79,12,580.820692527283
79,13,362.830412008042
79,14,1079.78866321708
79,15,578.141949462134
79,16,1256.22697707549
79,17,746.083844464271
79,18,1022.19695913639
79,19,886.069327602137
79,20,1180.18242095785
79,21,1348.98110327051
79,22,1127.75143387047
79,23,227.34682268029
79,24,231.000059053498
79,25,617.430777266838
79,26,220.045486860318
79,27,205.426950491142
79,28,1378.69135410351
79,29,803.95031544851
79,30,566.228827758497
80,1,832.41941048058
80,2,1282.03981759353
80,3,369.067562801421
80,4,1043.22011367734
80,5,1133.83536930173
80,6,1036.23223089661
80,7,1168.58649406437
80,8,1303.01635700879
80,9,242.795343586201
80,10,1414.28237964299
80,11,1292.12095298995
80,12,1105.34371569752
80,13,1321.5627078956
80,14,896.554769358987
80,15,854.197114172763
80,16,1718.70384677137
80,17,1559.12453266944
80,18,1179.35915374456
80,19,1571.25758346302
80,20,1185.21594535669
80,21,1935.49383704678
80,22,1811.32412292797
80,23,1438.45347779113
80,24,1178.7124472852
80,25,1115.36490587593
80,26,1321.59304929475
80,27,1100.37048959308
80,28,1965.96273677036
80,29,1624.2301701604
80,30,1612.5886977086
81,1,958.904858121074
81,2,991.90158829613
81,3,765.708160148383
81,4,1045.78054249105
81,5,512.659270336532
81,6,105.494921457668
81,7,381.994707210241
81,8,1201.21895248026
81,9,989.368934114513
81,10,417.532227352329
81,11,611.795195550521
81,12,949.306449233035
81,13,876.63787780338
81,14,529.321379499396
81,15,187.400621290038
81,16,844.044137503887
81,17,531.103908737296
81,18,472.195371796457
81,19,573.610202612932
81,20,621.713546102354
81,21,1010.68204863057
81,22,834.986993342967
81,23,789.938369589828
81,24,686.057246966713
81,25,105.114926508961
81,26,760.997453265168
81,27,569.329484115904
81,28,1042.78520821887
81,29,598.187891584944
81,30,603.871016962978
82,1,1641.10119023934
82,2,2017.76715572184
82,3,1947.96937630797
82,4,2179.94626681322
82,5,1041.60936203218
82,6,1147.63745139747
82,7,1383.72864317781
82,8,1489.36605073444
82,9,2160.3169345652
82,10,784.557145530145
82,11,1536.42994205635
82,12,2049.60585957178
82,13,1849.05760373021
82,14,1288.37447174473
82,15,1381.70798125912
82,16,443.141587315357
82,17,748.387892149452
82,18,978.509764497489
82,19,636.43526145575
82,20,1035.82253262734
82,21,210.849918485608
82,22,372.68951326564
82,23,1636.24609128819
82,24,1712.03763092925
82,25,1095.68112649408
82,26,1701.17413106256
82,27,1631.61585888042
82,28,183.217250385241
82,29,687.500545620055
82,30,957.938314200512
83,1,968.208926551894
83,2,800.98438203281
83,3,462.705248178102
83,4,773.058805627943
83,5,732.525328296075
83,6,391.173793292742
83,7,401.646057005287
83,8,1315.87117189539
83,9,690.795262809661
83,10,741.42691035352
83,11,574.663350113304
83,12,708.522169223402
83,13,737.818640772406
83,14,635.149606504386
83,15,152.536388699021
83,16,1160.77828022504
83,17,837.278154939641
83,18,721.261807768682
83,19,896.121641074462
83,20,835.035013265161
83,21,1334.44432278601
83,22,1158.7907430611
83,23,749.201865309288
83,24,546.352124936175
83,25,429.191932422661
83,26,667.767747938374
83,27,430.554334835152
83,28,1366.54470585076
83,29,906.028553549977
83,30,841.721101859384
84,1,1015.45356276574
84,2,1668.39547830059
84,3,1378.93217061173
84,4,1750.14142507435
84,5,409.120509409945
84,6,619.248011381932
84,7,1014.68765146872
84,8,944.442798886039
84,9,1576.20842465633
84,10,398.338299324504
84,11,1224.44392489268
84,12,1647.57637113365
84,13,1528.36487392562
84,14,656.631553699642
84,15,856.669153033475
84,16,191.857598681871
84,17,537.830402619801
84,18,353.037421396961
84,19,380.84425296567
84,20,404.250852906608
84,21,424.25460618685
84,22,407.833847902111
84,23,1375.22088554159
84,24,1353.07373820439
84,25,606.131224484537
84,26,1392.33224148538
84,27,1246.67158532404
84,28,451.088035709987
84,29,533.922658114705
84,30,819.905601930617
85,1,1356.35236139012
85,2,2316.80041488251
85,3,1437.71378366682
85,4,2035.33213409748
85,5,1946.40663258923
85,6,2009.3610297377
85,7,2229.97036049806
85,8,1689.47699099064
85,9,1256.53008026291
85,10,2358.44321978218
85,11,2362.67582148066
85,12,2130.75258919185
85,13,2378.6447427948
85,14,1705.57769222705
85,15,1878.14406959856
85,16,2539.0930487546
85,17,2531.93604211452
85,18,2017.42440167952
85,19,2503.86906887
85,20,1946.70871895561
85,21,2772.74124955164
85,22,2706.04128492921
85,23,2508.29835447337
85,24,2246.16892603678
85,25,2098.44539164271
85,26,2389.20679970904
85,27,2170.90275032014
85,28,2799.07483667203
85,29,2590.27262282492
85,30,2636.62330712803
86,1,814.09173530216
86,2,1950.58569016284
86,3,1466.75401312692
86,4,1973.7137270736
86,5,468.808933312835
86,6,855.213062395604
86,7,1322.84951303534
86,8,582.416141612442
86,9,1625.74309918095
86,10,779.85334346932
86,11,1547.90312929835
86,12,1896.36575360105
86,13,1832.37528716373
86,14,642.481537721652
86,15,1056.23516195517
86,16,524.275569568611
86,17,944.959223213438
86,18,488.38111291097
86,19,794.444451052836
86,20,371.379605158121
86,21,727.841369646998
86,22,799.632948428277
86,23,1714.00501692395
86,24,1644.20845558177
86,25,883.159392942959
86,26,1708.54703442722
86,27,1528.24001523167
86,28,742.335926022913
86,29,947.878535875891
86,30,1221.6488330883
87,1,1041.18313679079
87,2,2490.46838407204
87,3,1564.42177785591
87,4,2266.96345002576
87,5,1683.5898824272
87,6,1877.43321933828
87,7,2223.07196723269
87,8,1213.41906385648
87,9,1462.89763685958
87,10,2163.69296585704
87,11,2403.9547133947
87,12,2321.35119526295
87,13,2504.57763290979
87,14,1479.4160510637
87,15,1823.05047443914
87,16,2223.20895755619
87,17,2356.01221115403
87,18,1764.34066565259
87,19,2286.72311999741
87,20,1647.78873431323
87,21,2454.80834793022
87,22,2440.091633834
87,23,2573.35999730792
87,24,2337.69506568998
87,25,1968.55205409174
87,26,2475.20270529038
87,27,2238.23821681119
87,28,2476.41799043701
87,29,2402.88601777832
87,30,2524.89310787444
88,1,1442.6479129183
88,2,1196.08297873146
88,3,662.635076604032
88,4,874.033569457671
88,5,1667.64892850263
88,6,1462.53972746809
88,7,1397.53355898022
88,8,1913.16438312138
88,9,467.580581198671
88,10,1835.73815287333
88,11,1425.31995926799
88,12,1009.25414891796
88,13,1313.35860159121
88,14,1451.49533792739
88,15,1233.17162896366
88,16,2213.50721892795
88,17,1938.68236101617
88,18,1696.89692427554
88,19,1992.9419140067
88,20,1737.011942792
88,21,2410.74277243707
88,22,2252.05989643046
88,23,1513.67554491854
88,24,1249.44669378368
88,25,1520.7576546936
88,26,1379.35095284751
88,27,1226.20618540828
88,28,2442.51145302305
88,29,2007.5301213798
88,30,1909.90796762009
89,1,1802.00586788366
89,2,2197.79959408319
89,3,2139.10316242505
89,4,2367.1011805588
89,5,1218.65989358094
89,6,1339.22998587845
89,7,1569.65210577414
89,8,1616.53607531767
89,9,2350.58700617161
89,10,976.353342954119
89,11,1715.76648883698
89,12,2234.79244732439
89,13,2026.82981041435
89,14,1466.139408377
89,15,1573.63703144906
89,16,617.874927376201
89,17,933.343532574964
89,18,1159.0570282508
89,19,827.179101936164
89,20,1204.8611935556
89,21,394.563134468318
89,22,562.70814181075
89,23,1808.50400303016
89,24,1894.79441273254
89,25,1287.67374982128
89,26,1878.69019889332
89,27,1817.17159857664
89,28,364.020006494454
89,29,870.378714015713
89,30,1127.76910534936
90,1,1736.79858987462
90,2,2076.79889576803
90,3,2034.4642408244
90,4,2248.4730692671
90,5,1136.77045595518
90,6,1233.22858874982
90,7,1450.55922198569
90,8,1580.04675416435
90,9,2248.3502610752
90,10,865.083629103853
90,11,1594.71497608441
90,12,2115.19645221064
90,13,1905.54761027656
90,14,1383.32851294305
90,15,1465.32218084716
90,16,538.889053956956
90,17,814.23605354482
90,18,1072.99290128628
90,19,713.234431873856
90,20,1131.63494955732
90,21,305.955860889521
90,22,448.603828038361
90,23,1686.99613786425
90,24,1774.42769308755
90,25,1178.34309962244
90,26,1757.39499241316
90,27,1697.82478724828
90,28,278.912186244884
90,29,750.549824791084
90,30,1006.27610725539
91,1,1923.05095819629
91,2,2256.48678306386
91,3,2237.27414218627
91,4,2438.41978971658
91,5,1333.62714197275
91,6,1435.90811372197
91,7,1639.98011376243
91,8,1740.143810878
91,9,2451.39488284543
91,10,1066.04250817478
91,11,1774.62477319703
91,12,2302.22917427271
91,13,2082.53229438009
91,14,1580.81261270423
91,15,1667.26650814912
91,16,733.218329389274
91,17,1005.17149776522
91,18,1271.86849903956
91,19,912.558126760861
91,20,1323.30539477818
91,21,504.243938186611
91,22,648.702745343261
91,23,1857.45887164901
91,24,1958.5274496964
91,25,1380.00347249604
91,26,1934.42007463318
91,27,1886.12550173446
91,28,475.231530818287
91,29,939.515343444659
91,30,1177.62287604534
92,1,884.270482061232
92,2,1897.395355689
92,3,982.180722953003
92,4,1646.38394246526
92,5,1444.05651579599
92,6,1499.54326094015
92,7,1740.4035663743
92,8,1275.84878323189
92,9,838.923450157563
92,10,1847.95519348455
92,11,1888.00984574327
92,12,1718.6359059669
92,13,1936.67204080375
92,14,1200.49985313767
92,15,1375.60225738489
92,16,2041.08657257193
92,17,2021.40190414317
92,18,1512.91285945301
92,19,1993.94105257176
92,20,1451.36161563145
92,21,2273.61240004798
92,22,2199.38388862659
92,23,2042.92728337823
92,24,1788.42781330757
92,25,1588.98972281728
92,26,1930.64807683633
92,27,1703.27117105273
92,28,2300.71776641903
92,29,2079.64474393067
92,30,2130.49536668534
93,1,1913.18613207181
93,2,2761.3672232868
93,3,1934.35706240014
93,4,2457.8024547425
93,5,2506.32905894515
93,6,2557.69522037904
93,7,2747.69235796854
93,8,2224.16347669483
93,9,1731.52981693949
93,10,2912.58264229794
93,11,2862.59151408553
93,12,2572.16541542701
93,13,2844.43559677884
93,14,2264.92459022634
93,15,2414.06477919253
93,16,3099.12860759818
93,17,3082.81817689117
93,18,2576.98876239167
93,19,3059.70811214283
93,20,2506.63546174821
93,21,3332.81769864663
93,22,3264.97465016362
93,23,2996.79423639328
93,24,2729.64132343393
93,25,2645.59702728518
93,26,2871.76487863426
93,27,2665.37372797364
93,28,3359.11342927659
93,29,3142.39496357473
93,30,3175.65534852813
94,1,1906.89766847077
94,2,2728.87322089132
94,3,1907.87192585079
94,4,2423.91749751441
94,5,2495.05167140483
94,6,2539.76301032212
94,7,2723.20636151843
94,8,2225.33965254737
94,9,1703.09975095068
94,10,2896.66606291896
94,11,2835.54801935847
94,12,2539.5813687719
94,13,2813.72002843243
94,14,2252.70838891153
94,15,2393.08048943978
94,16,3089.28594782949
94,17,3065.52850822014
94,18,2564.99328851241
94,19,3044.59205065653
94,20,2497.22519391351
94,21,3322.70769955631
94,22,3252.05399343006
94,23,2968.30379023637
94,24,2700.7839862578
94,25,2627.25776341039
94,26,2842.70496817899
94,27,2637.80865048309
94,28,3349.23776852953
94,29,3125.55584518532
94,30,3154.94610113541
95,1,1287.91314611704
95,2,2436.26790165828
95,3,1529.54123786408
95,4,2171.35245305058
95,5,1908.75420570774
95,6,2020.03473501942
95,7,2287.38375003583
95,8,1567.61222338657
95,9,1371.95186214754
95,10,2350.33052709042
95,11,2437.99720944332
95,12,2254.20486618254
95,13,2482.76898281137
95,14,1677.51664775236
95,15,1914.2918934559
95,16,2487.50872664076
95,17,2532.16673221947
95,18,1984.27602544498
95,19,2488.83830671133
95,20,1895.72120252689
95,21,2721.91539589012
95,22,2674.4326294764
95,23,2592.93797398318
95,24,2337.55702501626
95,25,2110.96927482323
95,26,2479.98735167531
95,27,2253.31428283851
95,28,2746.59759012767
95,29,2586.79837011839
95,30,2660.74327263814
96,1,1379.28838577502
96,2,1192.32179574689
96,3,611.5909963833
96,4,874.968464396329
96,5,1610.29109471479
96,6,1412.9067598938
96,7,1364.13683044874
96,8,1849.82089017234
96,9,409.725464801184
96,10,1787.8630711423
96,11,1401.12227827801
96,12,1004.00314249054
96,13,1302.43091872284
96,14,1392.20623447143
96,15,1185.84125498769
96,16,2160.15339511638
96,17,1894.72076874558
96,18,1640.85553928886
96,19,1945.46768735486
96,20,1678.35810482756
96,21,2359.34688791712
96,22,2203.46493078927
96,23,1495.91921409394
96,24,1229.67658318671
96,25,1473.06026134384
96,26,1362.22631884356
96,27,1200.74707720436
96,28,2391.04030304849
96,29,1963.43977491209
96,30,1873.1898686116
97,1,502.657635855217
97,2,1252.63630478152
97,3,544.490101912931
97,4,1161.93349907681
97,5,510.936724873998
97,6,481.988572177358
97,7,824.126877524625
97,8,885.78053264514
97,9,697.696551869869
97,10,831.033304587481
97,11,1027.49166510001
97,12,1134.79804534416
97,13,1202.83966375051
97,14,286.900665162311
97,15,416.166700231699
97,16,1094.83121215177
97,17,1001.37049229433
97,18,554.507161912515
97,19,981.325246586103
97,20,572.479975295567
97,21,1314.69572711178
97,22,1204.67726346625
97,23,1206.76374646138
97,24,1012.470096888
97,25,572.815701043541
97,26,1132.80172716184
97,27,896.632717111243
97,28,1344.70207016098
97,29,1060.08283691294
97,30,1124.94350281798
98,1,1679.69891813596
98,2,170.5374886906
98,3,805.070434591586
98,4,158.462895349746
98,5,1484.24755666764
98,6,1098.61808648323
98,7,708.546119688844
98,8,2067.72694366996
98,9,921.616762611504
98,10,1343.32235966901
98,11,577.755645480625
98,12,53.8898845929537
98,13,324.94070518432
98,14,1395.63675558598
98,15,895.853787081878
98,16,1812.24185618947
98,17,1342.42671456473
98,18,1460.93122071097
98,19,1466.82886058601
98,20,1590.09214800065
98,21,1934.66847242001
98,22,1721.30983971792
98,23,570.511495344932
98,24,383.614604474053
98,25,1092.18165331767
98,26,446.600340610573
98,27,460.885983892992
98,28,1965.54929792296
98,29,1404.7363175546
98,30,1180.08352616866
99,1,1384.34960071095
99,2,2488.29059737845
99,3,1590.33055436965
99,4,2216.25040235938
99,5,2001.88648061568
99,6,2104.33400750599
99,7,2360.21635341439
99,8,1667.52428695217
99,9,1423.77286142548
99,10,2438.80716041934
99,11,2505.61590757406
99,12,2304.45310435112
99,13,2540.66979570399
99,14,1768.85375081307
99,15,1992.40207897396
99,16,2582.96085153625
99,17,2619.14424921801
99,18,2076.78678743439
99,19,2578.69959150543
99,20,1990.72139599469
99,21,2817.37463832034
99,22,2767.17982414043
99,23,2657.69914688301
99,24,2399.81126372071
99,25,2194.96687542271
99,26,2542.59000720246
99,27,2318.47026403935
99,28,2842.2706323707
99,29,2674.55160192705
99,30,2742.58914002276
100,1,1360.88931426934
100,2,2531.31198342267
100,3,1624.56041631814
100,4,2265.71674213463
100,5,1987.2410735476
100,6,2107.45661677077
100,7,2380.20659305127
100,8,1621.98767623479
100,9,1466.92295443034
100,10,2434.18136349235
100,11,2532.08020852458
100,12,2349.13288464566
100,13,2577.87998237692
100,14,1758.59666515806
100,15,2005.24113408902
100,16,2561.67902225448
100,17,2617.32962443943
100,18,2063.61360947837
100,19,2571.21672721785
100,20,1971.09184494556
100,21,2795.98185081414
100,22,2753.13398443485
100,23,2687.47943340676
100,24,2432.40685159668
100,25,2198.56523552285
100,26,2574.79518004979
100,27,2347.82625041702
100,28,2820.2138159789
100,29,2671.25508825434
100,30,2749.56005595661
101,1,1721.16343465868
101,2,239.706010245714
101,3,995.86154675768
101,4,539.977122146894
101,5,1381.56093851123
101,6,974.42433929701
101,7,497.310569505985
101,8,2046.07864602536
101,9,1169.91566840954
101,10,1119.45545918575
101,11,282.623003673484
101,12,380.654351868441
101,13,62.2596412029584
101,14,1358.28215406377
101,15,837.69251706354
101,16,1588.98349386742
101,17,1070.71156856555
101,18,1338.55424838107
101,19,1215.90708731879
101,20,1490.6272198778
101,21,1675.13756020073
101,22,1451.16395623522
101,23,192.892435767445
101,24,207.161006977875
101,25,936.675086381488
101,26,113.39256557493
101,27,323.805099430341
101,28,1704.25363266915
101,29,1124.97327692782
101,30,860.384310556627
102,1,1766.46159441099
102,2,2352.89513185067
102,3,1584.13922018051
102,4,2039.46200914718
102,5,2297.29285432162
102,6,2281.9946419731
102,7,2408.30762543834
102,8,2148.37215454883
102,9,1365.90623610982
102,10,2653.12283120395
102,11,2499.54626510046
102,12,2163.63660703091
102,13,2450.07054564868
102,14,2049.97811154267
102,15,2110.39304381365
102,16,2898.09628505169
102,17,2808.72197011316
102,18,2359.81585324551
102,19,2806.84434763316
102,20,2316.49589594793
102,21,3127.22778457715
102,22,3032.05743830955
102,23,2620.5550551473
102,24,2351.45689097841
102,25,2365.04622795691
102,26,2491.18743729994
102,27,2298.80786762837
102,28,3155.66494839805
102,29,2872.20991961307
102,30,2868.50868950375
103,1,1647.68444665577
103,2,1714.52493763298
103,3,1772.00278521031
103,4,1906.11285894601
103,5,1008.03596290976
103,6,981.714028067144
103,7,1109.52118298603
103,8,1597.17020975056
103,9,1994.88762701567
103,10,601.816000938372
103,11,1233.2051924169
103,12,1766.04714427573
103,13,1539.72126491649
103,14,1236.95936663999
103,15,1193.69680852496
103,16,513.597444118872
103,17,487.86582966602
103,18,930.371697677123
103,19,444.969611736083
103,20,1039.55739317613
103,21,357.515215285032
103,22,248.896877579747
103,23,1314.31852007104
103,24,1419.85121323096
103,25,909.728583515908
103,26,1391.68741506216
103,27,1352.68640212965
103,28,364.792572647569
103,29,419.025480363599
103,30,634.347259573832
104,1,1549.68800877002
104,2,1804.77071707719
104,3,1770.39977084142
104,4,1972.03787596965
104,5,922.561420778119
104,6,969.223106858974
104,7,1174.42052112298
104,8,1458.70248115681
104,9,1987.55514663079
104,10,594.559108990306
104,11,1323.14774564363
104,12,1839.58313069909
104,13,1635.44995899583
104,14,1163.05384126684
104,15,1197.03041156258
104,16,367.57696347467
104,17,538.099292350572
104,18,850.806218458936
104,19,439.626753796406
104,20,937.191816298875
104,21,178.658150386515
104,22,177.79895262966
104,23,1422.33028776784
104,24,1500.22854758668
104,25,909.376983820302
104,26,1487.50271040236
104,27,1421.92850171645
104,28,183.897522516074
104,29,475.469211055014
104,30,744.617077871287
105,1,201.305984104892
105,2,1716.92038774196
105,3,996.895447031038
105,4,1640.29191765367
105,5,458.860086108525
105,6,754.062091518802
105,7,1211.65030396563
105,8,407.32774927139
105,9,1101.76468044659
105,10,956.708192008478
105,11,1434.79483652936
105,12,1608.83831111102
105,13,1649.94048620555
105,14,314.510139664425
105,15,821.81585487724
105,16,1000.81171880737
105,17,1153.53534087346
105,18,541.09475558301
105,19,1065.24318410713
105,20,416.323359263538
105,21,1234.85696610777
105,22,1208.52843466594
105,23,1616.47618670146
105,24,1455.41662410556
105,25,834.446973455087
105,26,1562.43919839931
105,27,1335.67765593662
105,28,1258.74707113725
105,29,1192.4383966272
105,30,1363.05368511558
106,1,1568.17860763505
106,2,1759.20716358528
106,3,1753.32498695592
106,4,1933.615127553
106,5,934.74766668507
106,6,954.172386083492
106,7,1135.23170197071
106,8,1494.64498317019
106,9,1972.66380477245
106,10,575.305639336913
106,11,1277.13992484441
106,12,1798.80874487184
106,13,1588.2330293909
106,14,1171.28362116319
106,15,1177.29266483178
106,16,404.735982762587
106,17,499.850347511068
106,18,860.339772048652
106,19,417.51389361844
106,20,956.426221281869
106,21,237.072039221629
106,22,171.148305391558
106,23,1371.6463405334
106,24,1457.13142326918
106,25,889.91079007162
106,26,1440.11120768461
106,27,1381.92838890444
106,28,245.354751500141
106,29,434.592322481662
106,30,691.973396036929
107,1,1263.69026319823
107,2,559.645184784503
107,3,368.581086844665
107,4,374.818334325673
107,5,1170.61196097716
107,6,839.622825599645
107,7,640.058712752987
107,8,1676.65543168022
107,9,515.018254185415
107,10,1168.97689873416
107,11,659.837850652464
107,12,390.012992493313
107,13,607.562170479916
107,14,1033.62711866597
107,15,602.584919271029
107,16,1606.29617226413
107,17,1231.50517698305
107,18,1166.78264189097
107,19,1316.83521341134
107,20,1268.13940997624
107,21,1769.99479912592
107,22,1581.54392505478
107,23,765.594959203096
107,24,496.475345034185
107,25,867.466693703467
107,26,635.628314163468
107,27,459.245991731392
107,28,1802.04247044313
107,29,1300.00824565049
107,30,1159.95911975111
108,1,450.936377905035
108,2,1301.60694416272
108,3,553.22013715955
108,4,1197.91822411587
108,5,542.42831823757
108,6,545.964522807814
108,7,888.399118320939
108,8,854.561380024022
108,9,687.35090776091
108,10,888.966612710135
108,11,1089.41694925493
108,12,1178.03527042547
108,13,1257.61094215886
108,14,304.735653998571
108,15,481.054548336252
108,16,1135.08675818152
108,17,1062.32525148059
108,18,592.934828767423
108,19,1037.31939844848
108,20,593.712536144387
108,21,1358.1875157358
108,22,1255.51896611418
108,23,1267.99723128618
108,24,1068.75086512346
108,25,637.105016158261
108,26,1191.37038432326
108,27,954.159073728028
108,28,1387.74741423053
108,29,1120.07953569328
108,30,1190.3421643162
109,1,211.191510657015
109,2,1556.78260454896
109,3,805.072216471756
109,4,1461.83441474182
109,5,486.50074484446
109,6,674.397375968017
109,7,1094.42709769907
109,8,592.671922550316
109,9,909.155697926298
109,10,944.713181623039
109,11,1309.34989699491
109,12,1439.00991590532
109,13,1502.29637606758
109,14,260.214011214036
109,15,690.221986668479
109,16,1077.6673448458
109,17,1136.17518251594
109,18,561.427673423656
109,19,1073.28930416183
109,20,487.284545373779
109,21,1310.94572073953
109,22,1251.6414289586
109,23,1490.59202921678
109,24,1310.01611127029
109,25,762.811556221191
109,26,1425.30105537536
109,27,1192.27067932779
109,28,1337.55878037844
109,29,1183.94208779403
109,30,1313.91595338447
110,1,566.291465065262
110,2,1299.42798719034
110,3,745.911305919452
110,4,1269.46666228509
110,5,276.226421313311
110,6,314.860713763216
110,7,762.761960928495
110,8,825.789135956545
110,9,925.150149091848
110,10,608.392510924808
110,11,987.41003239391
110,12,1212.62126171002
110,13,1216.2526450485
110,14,138.302618489368
110,15,384.539873352205
110,16,848.387599091129
110,17,791.5381533143
110,18,309.863286650145
110,19,751.252088508723
110,20,357.423426508988
110,21,1068.17235172854
110,22,963.563222724515
110,23,1168.84897554787
110,24,1020.90704766737
110,25,402.512780830093
110,26,1120.338265452
110,27,900.310401820291
110,28,1098.1100022632
110,29,844.77705086901
110,30,954.606028990929
111,1,1795.57971967276
111,2,155.969415572107
111,3,918.411888945793
111,4,229.555748964549
111,5,1588.61936442158
111,6,1197.81430665128
111,7,785.643900171572
111,8,2181.1811564459
111,9,1026.70641608906
111,10,1425.4817922493
111,11,629.061430908796
111,12,168.849968363841
111,13,337.805921971675
111,14,1506.69243353437
111,15,1001.9923203857
111,16,1896.55837321715
111,17,1412.04039799597
111,18,1562.52494800739
111,19,1542.91946647879
111,20,1695.24616129658
111,21,2010.04478931362
111,22,1792.99111800338
111,23,588.009018199071
111,24,448.230455759286
111,25,1186.23257973569
111,26,478.694100909001
111,27,542.253943211497
111,28,2040.50332181543
111,29,1472.23352184479
111,30,1232.35892013294
112,1,1088.27617649577
112,2,1386.08107843456
112,3,1218.03999824121
112,4,1494.48630251385
112,5,449.746126332234
112,6,416.819130567645
112,7,729.504458284967
112,8,1138.18014334075
112,9,1433.15766956449
112,10,97.0953859244768
112,11,930.494632457094
112,12,1380.54800237184
112,13,1238.77946760222
112,14,655.910875493186
112,15,651.356850295079
112,16,385.057200752297
112,17,265.815286509938
112,18,367.471126730991
112,19,158.439617770796
112,20,513.752880634079
112,21,537.832300730459
112,22,378.307209680862
112,23,1076.45819375956
112,24,1070.20007531982
112,25,367.857490466683
112,26,1099.52106098421
112,27,969.781108498815
112,28,569.934677862396
112,29,289.031642079846
112,30,534.392834473089
113,1,574.714265357584
113,2,1793.22487886698
113,3,1235.29295228991
113,4,1784.28331623831
113,5,305.618161454015
113,6,712.343419511027
113,7,1197.45303689719
113,8,462.747585984399
113,9,1383.98597542409
113,10,753.334946364861
113,11,1427.13270809598
113,12,1720.60416137137
113,13,1691.26604120238
113,14,410.043527432041
113,15,879.026096629384
113,16,657.674825253719
113,17,942.754855479066
113,18,362.535176711781
113,19,817.190919193287
113,20,197.455458020195
113,21,886.538877244063
113,22,899.60709892865
113,23,1602.04475909494
113,24,1498.02605341921
113,25,762.510984180066
113,26,1578.58240233241
113,27,1378.63096320694
113,28,907.405223172456
113,29,963.726605288104
113,30,1197.28554700639
114,1,1508.50890147699
114,2,1322.92036129462
114,3,1448.8238917097
114,4,1519.71100060012
114,5,880.28597733239
114,6,706.099558553224
114,7,727.942347720304
114,8,1571.91079836825
114,9,1676.17583837503
114,10,380.66219097734
114,11,841.682659289316
114,12,1377.07965595474
114,13,1148.41265125363
114,14,1063.13759567137
114,15,878.945455209028
114,16,631.893841285826
114,17,186.674376633782
114,18,798.180421367745
114,19,294.840791851087
114,20,949.243482869364
114,21,617.701006437361
114,22,392.313895205202
114,23,926.126043001981
114,24,1029.59590359925
114,25,619.256297503772
114,26,1000.31202448376
114,27,966.69278683173
114,28,641.515296245221
114,29,146.582068432037
114,30,245.365618151572
115,1,620.397290778142
115,2,1132.23223689445
115,3,424.644667581972
115,4,1032.19301193264
115,5,603.625777656508
115,6,481.227666859676
115,7,747.002089187379
115,8,1016.05573607662
115,9,597.529535516408
115,10,853.847704887154
115,11,936.824976056956
115,12,1008.82228710943
115,13,1091.47979305182
115,14,401.986577699999
115,15,351.129825207331
115,16,1164.45108674636
115,17,1008.51600003328
115,18,634.684648451858
115,19,1009.6770866802
115,20,677.540975810981
115,21,1375.92990171587
115,22,1247.73022214062
115,23,1112.82930495307
115,24,904.525724194798
115,25,566.37500417092
115,26,1030.40325956423
115,27,791.953832404901
115,28,1406.79502295071
115,29,1071.32304061715
115,30,1099.73432889931
116,1,1772.09780515248
116,2,2367.41157551972
116,3,1596.66190118364
116,4,2054.21741092135
116,5,2305.4174170215
116,6,2292.33720723375
116,7,2420.75395547954
116,8,2151.90057247112
116,9,1378.83655791485
116,10,2663.05714950057
116,11,2512.74730459357
116,12,2178.13414518637
116,13,2464.19809752256
116,14,2058.16966079047
116,15,2121.59441808349
116,16,2906.18676313543
116,17,2819.17528077621
116,18,2368.24217591053
116,19,2816.60776771439
116,20,2323.99467298351
116,21,3135.53325302322
116,22,3041.23081412728
116,23,2634.17272667599
116,24,2365.09287317681
116,25,2375.57884408739
116,26,2504.91625301802
116,27,2312.08013731871
116,28,3163.907725274
116,29,2882.55262833479
116,30,2880.03429178438
117,1,821.017816543849
117,2,1941.95561751873
117,3,1464.47995460906
117,4,1967.18355689255
117,5,462.965844837734
117,6,846.683317433008
117,7,1312.8732852631
117,8,595.447850947418
117,9,1625.00927298089
117,10,766.887144101955
117,11,1537.57172657241
117,12,1888.89610968054
117,13,1822.90006063244
117,14,641.164614075066
117,15,1049.41929789459
117,16,509.770831138266
117,17,931.226859301864
117,18,480.356505390829
117,19,780.362168212781
117,20,367.22004627482
117,21,714.012452949824
117,22,784.981880740854
117,23,1703.20793985539
117,24,1635.0811748481
117,25,873.468396343946
117,26,1698.56767936952
117,27,1519.35925485632
117,28,728.710030072182
117,29,933.804394895317
117,30,1208.23366761109
118,1,1737.76089338865
118,2,386.538151850418
118,3,806.885771836036
118,4,119.666301985123
118,5,1622.64241846272
118,6,1257.64526144631
118,7,913.714059605833
118,8,2154.09814515621
118,9,866.234461775943
118,10,1534.67202709141
118,11,804.43976273462
118,12,256.897096962377
118,13,555.53192619594
118,14,1504.54279046443
118,15,1036.3306079861
118,16,1997.50652142988
118,17,1550.02496028276
118,18,1608.85209354433
118,19,1666.08501957025
118,20,1724.67084577711
118,21,2132.98616247499
118,22,1924.97474615231
118,23,802.813235223724
118,24,606.520499116274
118,25,1263.93228655002
118,26,678.905090342022
118,27,667.137694255418
118,28,2164.33162917067
118,29,1614.25039577814
118,30,1402.71326190119
119,1,427.812941070468
119,2,1846.0953058317
119,3,937.651968516495
119,4,1660.22257723005
119,5,1040.1466538515
119,6,1188.14923234831
119,7,1531.15013749801
119,8,807.852748386784
119,9,901.648416177979
119,10,1494.0000155921
119,11,1717.99207494346
119,12,1689.78607728589
119,13,1840.58021401491
119,14,813.20237800548
119,15,1129.10820902024
119,16,1620.20724948021
119,17,1681.514312838
119,18,1116.47636833818
119,19,1627.04693720415
119,20,1027.60463103482
119,21,1854.58640439995
119,22,1806.02289593489
119,23,1890.80203789057
119,24,1665.12217768927
119,25,1279.62359086287
119,26,1798.98626954585
119,27,1560.27621269754
119,28,1879.78988911703
119,29,1732.56647224098
119,30,1836.11278959733
120,1,1324.63975986719
120,2,2008.00023987609
120,3,1770.65389882945
120,4,2117.57617493123
120,5,781.467947321567
120,6,1002.47566873711
120,7,1351.96980119152
120,8,1130.31904745274
120,9,1966.71456786766
120,10,711.223283925313
120,11,1542.93858137832
120,12,2005.5690896511
120,13,1855.32381077817
120,14,1025.18003157466
120,15,1242.02426464993
120,16,240.019159957844
120,17,770.794080565298
120,18,737.387736141648
120,19,613.124275041178
120,20,746.388698414124
120,21,242.048437814473
120,22,435.71145602711
120,23,1674.79235832486
120,24,1692.5744489252
120,25,977.500800404774
120,26,1712.53951857922
120,27,1594.3545197403
120,28,238.586754637759
120,29,733.147605437479
120,30,1040.08425060076
121,1,340.139689642379
121,2,1956.05765735485
121,3,1240.23683726856
121,4,1886.38665269058
121,5,592.765284332844
121,6,952.433058669047
121,7,1427.03761813975
121,8,161.511233766253
121,9,1334.16627606213
121,10,1089.07888003539
121,11,1653.96832636573
121,12,1852.38599695529
121,13,1882.38016495981
121,14,530.095480847392
121,15,1050.71054014254
121,16,1024.97032463033
121,17,1284.4875478831
121,18,670.78835103378
121,19,1172.21780274115
121,20,510.83356768292
121,21,1250.52732781242
121,22,1269.06283094247
121,23,1834.86938631844
121,24,1687.20196984432
121,25,1024.11886078459
121,26,1788.69631667161
121,27,1566.82550945954
121,28,1269.76194393186
121,29,1313.05248956538
121,30,1520.38064356019
122,1,1415.64370393006
122,2,1195.07822419579
122,3,1305.28559687942
122,4,1380.24879575839
122,5,805.620645783416
122,6,581.043807923394
122,7,585.007338931977
122,8,1517.9957463146
122,9,1532.98317079213
122,10,307.949931293167
122,11,712.963864853353
122,12,1240.34754829392
122,13,1024.25241343953
122,14,965.646191589521
122,15,739.206942635812
122,16,668.725761276377
122,17,126.623327728917
122,18,725.510442691014
122,19,288.459387375058
122,20,886.233958137743
122,21,702.124337164718
122,22,474.16971930587
122,23,813.06474527882
122,24,895.307275459871
122,25,491.273945454997
122,26,876.209420816041
122,27,826.807358335101
122,28,729.355332515078
122,29,151.247360783471
122,30,158.628520104644
123,1,1266.94128214359
123,2,696.905463421182
123,3,815.303569317347
123,4,827.796481642315
123,5,847.209418308242
123,6,441.546818198824
123,7,44.7694635696196
123,8,1537.42261312684
123,9,1039.91917174907
123,10,602.175923744553
123,11,274.398521282794
123,12,699.488350541257
123,13,557.97305642285
123,14,858.07214968057
123,15,373.323883732088
123,16,1073.56231560726
123,17,606.842539833291
123,18,799.58758754493
123,19,723.869858400905
123,20,955.88298852102
123,21,1191.67767781931
123,22,980.893652363564
123,23,452.13744720975
123,24,381.022070946212
123,25,395.755832644633
123,26,430.25244912432
123,27,282.524285796064
123,28,1222.68283246338
123,29,672.355909943428
123,30,509.665727321514
124,1,904.290010605194
124,2,1675.21246231739
124,3,1321.03774483794
124,4,1735.33715258815
124,5,318.914903671357
124,6,597.059675658692
124,7,1029.39254962161
124,8,832.930284870763
124,9,1510.17427943055
124,10,450.788702650702
124,11,1247.57249300547
124,12,1641.38617200924
124,13,1543.85046894433
124,14,564.084373773218
124,15,826.056666619993
124,16,296.94683049302
124,17,614.373256042079
124,18,278.644571184398
124,19,467.309475767982
124,20,296.667455785891
124,21,531.36150197362
124,22,522.092550836685
124,23,1406.44694094245
124,24,1362.28487065566
124,25,601.187571475689
124,26,1412.77273438054
124,27,1251.28822115859
124,28,556.493260734104
124,29,620.203140520707
124,30,890.654866798992
125,1,1216.87812668706
125,2,828.859978746519
125,3,277.602044818344
125,4,553.288346694809
125,5,1287.48802307721
125,6,1028.49819583831
125,7,934.281957062824
125,8,1669.07903603827
125,9,259.330083537401
125,10,1391.67503366587
125,11,975.28965261643
125,12,641.620113717906
125,13,908.723951033797
125,14,1101.21788130849
125,15,791.551131299243
125,16,1794.16809046272
125,17,1483.10965444743
125,18,1303.03346192819
125,19,1546.85967351784
125,20,1371.03668603599
125,21,1979.44662386206
125,22,1809.13852992281
125,23,1081.14899966831
125,24,812.322328016415
125,25,1077.82343079252
125,26,949.8669623399
125,27,773.898790043596
125,28,2011.47837865711
125,29,1552.1066846474
125,30,1446.2207544756
126,1,758.635046620335
126,2,1971.34788026403
126,3,1452.7583272531
126,4,1982.11718834281
126,5,478.711230122061
126,6,877.347377226438
126,7,1352.67862657604
126,8,507.369759027545
126,9,1603.74423165692
126,10,831.424285364725
126,11,1579.71763263275
126,12,1910.25772011156
126,13,1858.45168129053
126,14,626.499898900078
126,15,1067.70736281457
126,16,598.20852753487
126,17,1002.58674278693
126,18,510.173841735679
126,19,855.668462414312
126,20,374.094346307739
126,21,803.378037531976
126,22,871.692753917011
126,23,1748.71994460053
126,24,1668.30180702767
126,25,912.227256609856
126,26,1737.92813325686
126,27,1550.95629740121
126,28,817.914241873201
126,29,1008.81164496643
126,30,1276.15041519589
127,1,671.720164077106
127,2,1824.97253298323
127,3,898.683832632168
127,4,1600.57232603266
127,5,1241.18815554558
127,6,1323.67220031095
127,7,1602.48348616232
127,8,1070.94996220274
127,9,800.183453573591
127,10,1660.5177391995
127,11,1766.36329780045
127,12,1654.47426968737
127,13,1845.46856459694
127,14,1000.47724165023
127,15,1220.5027472994
127,16,1835.37594891139
127,17,1839.01856674203
127,18,1312.15252073982
127,19,1803.02520956432
127,20,1244.01505990954
127,21,2068.6131183593
127,22,2001.15607903551
127,23,1929.43832551325
127,24,1684.78385702965
127,25,1414.42783594667
127,26,1824.69506278509
127,27,1590.88802816653
127,28,2095.2736348906
127,29,1895.14374297246
127,30,1963.8159009697
128,1,752.27729868579
128,2,1974.38362022216
128,3,1048.33116300905
128,4,1745.29461210266
128,5,1353.48837711327
128,6,1460.7634709171
128,7,1751.51995214378
128,8,1107.10583104022
128,9,940.915275382378
128,10,1788.93266366828
128,11,1917.26881655644
128,12,1802.60669858607
128,13,1996.59136510349
128,14,1118.47225660308
128,15,1366.26497867906
128,16,1940.3143787673
128,17,1970.85101005637
128,18,1427.38675382418
128,19,1928.08095147669
128,20,1347.36152208347
128,21,2174.48262365687
128,22,2117.82708051519
128,23,2080.77857935323
128,24,1836.29091490593
128,25,1551.96707437274
128,26,1976.21053517076
128,27,1742.32424835344
128,28,2200.19646454463
128,29,2025.35112599096
128,30,2104.12579909234
129,1,994.222681129382
129,2,2360.37130007
129,3,1434.29825856369
129,4,2128.63122211293
129,5,1632.85068151547
129,6,1796.95606067705
129,7,2120.25729632034
129,8,1225.75917563523
129,9,1321.93555860224
129,10,2100.09988214628
129,11,2293.7084849215
129,12,2188.27566991775
129,13,2381.31339307998
129,14,1416.42856327975
129,15,1726.0449696155
129,16,2191.62037656297
129,17,2289.26039115076
129,18,1711.89845825501
129,19,2229.42943403696
129,20,1606.5703208263
129,21,2425.10722852518
129,22,2396.15426333743
129,23,2459.97830462658
129,24,2218.84499428589
129,25,1888.47906290882
129,26,2357.94518840385
129,27,2122.67112541656
129,28,2448.1631370801
129,29,2339.11639377461
129,30,2444.77373283248
130,1,536.596089629281
130,2,1627.88706360052
130,3,1080.40443731659
130,4,1617.24383559556
130,5,158.499010749362
130,6,554.793144810271
130,7,1040.74114611432
130,8,567.574611035566
130,9,1239.15970873448
130,10,651.146386802543
130,11,1270.64753721237
130,12,1553.57273138893
130,13,1528.89893329763
130,14,255.286232431735
130,15,712.501890754116
130,16,665.595249125217
130,17,847.082694255173
130,18,233.05666540518
130,19,741.459184133119
130,20,78.3504911111565
130,21,900.009949505257
130,22,870.199936736426
130,23,1447.51419890656
130,24,1334.99149847659
130,25,612.276709554088
130,26,1419.05443543353
130,27,1215.17876392011
130,28,924.993713133767
130,29,877.953916724241
130,30,1083.43378467191
131,1,617.744689119944
131,2,1309.37448467809
131,3,807.344540998643
131,4,1298.60627634044
131,5,217.159542583326
131,6,273.123465763443
131,7,744.590264162962
131,8,836.03397232409
131,9,993.462019678649
131,10,535.218433238499
131,11,972.696049876045
131,12,1232.95484225084
131,13,1216.32431580645
131,14,168.960265985237
131,15,392.493089285541
131,16,772.526463037731
131,17,721.646216965736
131,18,238.205288686483
131,19,675.448498821315
131,20,311.308278748138
131,21,990.881778589318
131,22,885.436852712968
131,23,1152.90812290973
131,24,1021.41165272499
131,25,354.102640387348
131,26,1113.05513794371
131,27,900.978923994788
131,28,1020.95660969357
131,29,772.976516781212
131,30,896.774550601299
132,1,374.852823568572
132,2,1378.03231117171
132,3,607.652413854783
132,4,1268.69284208434
132,5,549.016800611865
132,6,603.199393369443
132,7,963.146466422062
132,8,790.702880283791
132,9,722.96586142974
132,10,931.530984010361
132,11,1166.02481506925
132,12,1252.39587752692
132,13,1335.2505308733
132,14,302.52726873477
132,15,555.048037151296
132,16,1148.47970768391
132,17,1110.49286013321
132,18,607.792933316069
132,19,1075.78069659455
132,20,586.665748013528
132,21,1375.55179527373
132,22,1284.52887393413
132,23,1344.93427670281
132,24,1146.48328712006
132,25,694.748905105181
132,26,1268.98501196498
132,27,1031.86266522836
132,28,1404.37966776398
132,29,1166.06207937475
132,30,1250.53631312358
133,1,1206.62820175854
133,2,670.949095652369
133,3,712.092469067026
133,4,763.056506958411
133,5,834.702618630156
133,6,428.841981119646
133,7,117.135115968609
133,8,1502.21159270153
133,9,936.479239815404
133,10,653.147218093238
133,11,312.915250823942
133,12,646.886235875221
133,13,553.398522319559
133,14,816.139614519034
133,15,306.34224374697
133,16,1118.85049920383
133,17,682.873900421602
133,18,795.900301294581
133,19,786.597268887101
133,20,943.724756260287
133,21,1252.14974679055
133,22,1048.35095493313
133,23,494.464743459629
133,24,362.37080526837
133,25,403.967239176638
133,26,444.158530505479
133,27,246.964695662027
133,28,1283.64733584558
133,29,750.258907301838
133,30,608.807522315329
134,1,370.448885878848
134,2,2035.47672461371
134,3,1299.82000113516
134,4,1958.02869749596
134,5,681.918882294561
134,6,1040.77176636143
134,7,1513.76392342764
134,8,100.162161871668
134,9,1382.32618536506
134,10,1177.1331956196
134,11,1740.13320499962
134,12,1928.21051695027
134,13,1965.02173511158
134,14,615.121625106231
134,15,1134.11474350807
134,16,1098.46945249686
134,17,1372.16789899555
134,18,759.576037174175
134,19,1257.85808372937
134,20,598.458044670861
134,21,1320.88849328237
134,22,1347.99097274146
134,23,1921.25031667203
134,24,1770.02903803708
134,25,1113.09929942023
134,26,1873.29079435321
134,27,1649.83505439803
134,28,1338.99433968203
134,29,1399.80182480769
134,30,1609.4681552683
135,1,1221.75939120156
135,2,1481.38634706032
135,3,1371.09535211696
135,4,1613.32382524279
135,5,579.343471263363
135,6,569.690868817934
135,7,828.901881383633
135,8,1228.03699704609
135,9,1587.91915848581
135,10,201.610910686018
135,11,1011.16459964506
135,12,1491.52056913961
135,13,1324.60069946678
135,14,800.900447952486
135,15,799.698343593857
135,16,304.266415658378
135,17,245.670770912885
135,18,499.098298652633
135,19,81.8785301926785
135,20,625.869793907889
135,21,402.169535504961
135,22,221.992932100305
135,23,1141.27893215892
135,24,1167.51593260499
135,25,512.703328548028
135,26,1180.60752388455
135,27,1075.24500079086
135,28,433.880363608959
135,29,228.024806572694
135,30,527.608849508116
136,1,1103.63040547836
136,2,875.183623485505
136,3,165.805671958516
136,4,626.573289892026
136,5,1183.72380891613
136,6,942.745014196257
136,7,896.322899103631
136,8,1555.11628538291
136,9,189.662357769542
136,10,1312.84239216312
136,11,963.70866988942
136,12,693.58653147362
136,13,934.531875453376
136,14,991.86408472396
136,15,710.218637169338
136,16,1702.74399443568
136,17,1414.95322079391
136,18,1202.54016894115
136,19,1469.62618656468
136,20,1264.79021875882
136,21,1893.4628470849
136,22,1729.75254059326
136,23,1085.31108590437
136,24,816.845893876202
136,25,997.888349473657
136,26,958.301889795767
136,27,762.394700009875
136,28,1925.38892714074
136,29,1483.74449733513
136,30,1397.25807449578
137,1,744.980018743041
137,2,1228.43625824518
137,3,302.293829377503
137,4,1016.87940231162
137,5,1001.62081483931
137,6,902.321003844389
137,7,1057.75012661448
137,8,1212.70879995101
137,9,273.707340257222
137,10,1279.57112701348
137,11,1195.28844687427
137,12,1060.17112223557
137,13,1250.92630908802
137,14,767.206516220403
137,15,726.576350136588
137,16,1583.95768163636
137,17,1426.55278036595
137,18,1045.46235498526
137,19,1436.30147172652
137,20,1056.18159786456
137,21,1800.0897476259
137,22,1675.69075066913
137,23,1349.29580854312
137,24,1096.35412901764
137,25,982.578707470789
137,26,1238.07037541023
137,27,1009.62260374519
137,28,1830.6105171125
137,29,1491.22579467486
137,30,1487.5228778957
138,1,383.914639348638
138,2,1437.43690991247
138,3,774.927257595164
138,4,1374.76535877174
138,5,337.495633586206
138,6,497.235960908886
138,7,934.861007933883
138,8,680.021952136936
138,9,919.428100111804
138,10,768.038923451735
138,11,1155.60628598881
138,12,1334.76542822024
138,13,1368.00656353773
138,14,90.9873790511851
138,15,540.271724526488
138,16,938.287839137099
138,17,957.860495500732
138,18,403.424541752764
138,19,900.934993849788
138,20,369.449233410567
138,21,1168.07567018026
138,22,1091.28382719111
138,23,1337.35035104616
138,24,1173.41937364778
138,25,584.427751070233
138,26,1280.89650901193
138,27,1053.66126240327
138,28,1196.17312040472
138,29,1007.02042414054
138,30,1133.9244239299
139,1,655.439200587855
139,2,1383.14753399544
139,3,457.553647808268
139,4,1171.78157543504
139,5,1012.812654134
139,6,975.291248027901
139,7,1182.68680264333
139,8,1125.81822298062
139,9,404.100982650104
139,10,1343.20382010032
139,11,1332.7789359728
139,12,1215.72868424697
139,13,1401.79156717896
139,14,768.057828311985
139,15,826.274756794592
139,16,1608.82283205285
139,17,1502.61650202668
139,18,1066.59370476623
139,19,1496.70740824026
139,20,1052.52883579176
139,21,1832.23144950967
139,22,1724.6579497671
139,23,1491.50466200882
139,24,1242.95771403854
139,25,1060.88346207831
139,26,1383.69750053309
139,27,1152.03292236624
139,28,1861.81843582931
139,29,1564.8250114647
139,30,1587.02690129789
140,1,597.271005894602
140,2,1155.34733718691
140,3,440.13577884548
140,4,1054.58275013113
140,5,593.306773316542
140,6,487.631859789482
140,7,765.931593219079
140,8,994.045267043075
140,9,607.269573589515
140,10,857.302862036388
140,11,957.54660563887
140,12,1031.83752110468
140,13,1114.18243090674
140,14,386.205468661886
140,15,367.338991321223
140,16,1159.58118873926
140,17,1014.89386010698
140,18,626.989395227504
140,19,1012.37745297295
140,20,664.655011098314
140,21,1372.84877888269
140,22,1248.00148136656
140,23,1133.97456173722
140,24,926.946012587624
140,25,574.113866773093
140,26,1052.37132319615
140,27,814.061627238041
140,28,1403.56411516507
140,29,1077.07445398116
140,30,1111.48566839812
141,1,1468.35378855444
141,2,1795.94275478329
141,3,1719.13813015377
141,4,1950.13254846504
141,5,845.919694436649
141,6,917.847782562117
141,7,1155.79811664611
141,8,1371.71915030298
141,9,1933.51535871807
141,10,551.697746744567
141,11,1316.33937109409
141,12,1821.89151424002
141,13,1630.22702565211
141,14,1088.7333271989
141,15,1150.29080344884
141,16,280.803559526917
141,17,523.912621267428
141,18,776.317961471703
141,19,403.9405288139
141,20,856.090778337832
141,21,108.729600523415
141,22,142.666774243219
141,23,1424.98999441915
141,24,1487.39782891075
141,25,863.661667007042
141,26,1482.97811950914
141,27,1403.82298889351
141,28,126.062997490373
141,29,467.199103420039
141,30,755.196905404542
142,1,521.429622648105
142,2,1318.9813361499
142,3,440.674681575198
142,4,1154.83393304872
142,5,791.170765045756
142,6,764.187066067648
142,7,1023.14153700904
142,8,983.290187781348
142,9,498.760436520935
142,10,1125.53385396302
142,11,1196.37399129275
142,12,1169.06766725507
142,13,1309.45778147384
142,14,548.391929312847
142,15,639.874375314262
142,16,1385.67733534107
142,17,1290.11538358047
142,18,843.476584841369
142,19,1277.50687914846
142,20,835.425669705915
142,21,1608.70503807355
142,22,1502.35182000653
142,23,1365.56537307955
142,24,1134.7403502837
142,25,852.227205225937
142,26,1269.85975556828
142,27,1031.77406164336
142,28,1638.32306253359
142,29,1350.84687121219
142,30,1391.08571074347
143,1,1896.21387101856
143,2,2802.51570050287
143,3,1961.27218287011
143,4,2502.82669753456
143,5,2498.84544925549
143,6,2564.39712039386
143,7,2769.09535101378
143,8,2192.17019766541
143,9,1763.41900635893
143,10,2914.61662521001
143,11,2889.99947363131
143,12,2613.66289055855
143,13,2880.94648044237
143,14,2259.65273811059
143,15,2427.69403164305
143,16,3088.22686251806
143,17,3087.72866687347
143,18,2570.94119208569
143,19,3059.92115354207
143,20,2495.28904633343
143,21,3322.33524896873
143,22,3260.39391712919
143,23,3027.65333703661
143,24,2761.56355002533
143,25,2653.12075166049
143,26,2904.10182116416
143,27,2694.17390686734
143,28,3348.13410624697
143,29,3146.28614077242
143,30,3188.10948504282
144,1,1141.59552363813
144,2,2724.22189907485
144,3,1804.49102789171
144,4,2519.90869990399
144,5,1768.2188479867
144,6,2016.01114941637
144,7,2401.7472928806
144,8,1191.04103450541
144,9,1726.14241475544
144,10,2265.07732688335
144,11,2596.32352327847
144,12,2562.38737514498
144,13,2723.54533313469
144,14,1592.55197160273
144,15,1994.66481621784
144,16,2260.65797558991
144,17,2461.32445636249
144,18,1850.5222180941
144,19,2374.10256679936
144,20,1714.85118632916
144,21,2485.53380651671
144,22,2499.20310056055
144,23,2771.13010836275
144,24,2548.32774703818
144,25,2104.99724399836
144,26,2681.65552899373
144,27,2442.75467122446
144,28,2504.02532407857
144,29,2501.76353649525
144,30,2655.20935188931
145,1,1533.22415978703
145,2,497.175977213557
145,3,591.826996021677
145,4,178.36736273399
145,5,1467.37821394488
145,6,1127.59668366921
145,7,856.563729450685
145,8,1960.39523692419
145,9,645.900188649812
145,10,1438.92422394061
145,11,803.059993496932
145,12,312.59380787057
145,13,626.676843600659
145,14,1328.41633341881
145,15,894.151399045581
145,16,1888.0008280939
145,17,1480.91660602081
145,18,1462.16366092728
145,19,1580.69653421302
145,20,1565.17098834416
145,21,2041.50862560253
145,22,1844.26620373535
145,23,850.056947031442
145,24,606.748773615914
145,25,1147.760137966
145,26,716.148917610364
145,27,627.559374638288
145,28,2073.37364476125
145,29,1547.97190838934
145,30,1371.07251314195
146,1,1409.23113735262
146,2,1194.17689982313
146,3,1300.27433658333
146,4,1378.02889937003
146,5,799.367666095585
146,6,574.872667373123
146,7,582.332760413309
146,8,1511.97252556589
146,9,1527.92992869168
146,10,301.955754654975
146,11,712.10908960756
146,12,1238.49833213043
146,13,1023.71716598181
146,14,959.229675127978
146,15,733.752576920079
146,16,665.530695797469
146,17,122.031293576731
146,18,719.295553542654
146,19,284.49049222947
146,20,880.130250619823
146,21,700.971670350742
146,22,473.190728738467
146,23,813.484372354581
146,24,893.803567174808
146,25,485.166483185243
146,26,875.721265084586
146,27,824.59586825337
146,28,728.352014445185
146,29,149.19807727518
146,30,162.292126621774
147,1,742.65011251826
147,2,2024.95806055627
147,3,1098.66562164481
147,4,1800.52065888747
147,5,1357.11968622413
147,6,1481.89543828347
147,7,1786.46713097308
147,8,1075.76991593839
147,9,998.254520868117
147,10,1802.45515301499
147,11,1956.68627092642
147,12,1854.84479316899
147,13,2043.35558830925
147,14,1126.4698399785
147,15,1396.62942442613
147,16,1938.34981972325
147,17,1986.80276063694
147,18,1432.61745029979
147,19,1938.94569979488
147,20,1345.80005171342
147,21,2172.74010509722
147,22,2122.75910367985
147,23,2122.12448689045
147,24,1880.46214765372
147,25,1573.34709513246
147,26,2019.608625933
147,27,1784.52504667574
147,28,2197.87576081794
147,29,2039.95307842084
147,30,2127.53030864944
148,1,904.610529167197
148,2,2448.36720674244
148,3,1528.35789754063
148,4,2244.24085111602
148,5,1543.45889679795
148,6,1765.14576311377
148,7,2136.6484618598
148,8,1036.53347620045
148,9,1452.69158362268
148,10,2032.62129813619
148,11,2327.49390775498
148,12,2286.25250863402
148,13,2449.26054664987
148,14,1352.00498682452
148,15,1731.16583465476
148,16,2066.24505548923
148,17,2227.21559145845
148,18,1625.18196309494
148,19,2149.45997580539
148,20,1500.1244095765
148,21,2296.03953308458
148,22,2291.40977403928
148,23,2501.07086568949
148,24,2275.33547620151
148,25,1855.26968337426
148,26,2409.57075172283
148,27,2170.89732962105
148,28,2316.67211859309
148,29,2271.10248234065
148,30,2409.23489574884
149,1,1402.36895328796
149,2,1370.87323287145
149,3,737.875159036121
149,4,1053.13926947603
149,5,1698.73344232485
149,6,1534.95171341927
149,7,1522.20727539476
149,8,1870.98861541398
149,9,516.310517070243
149,10,1913.84798665614
149,11,1570.10286612271
149,12,1182.4967152935
149,13,1479.71368186647
149,14,1469.783942954
149,15,1316.10953625741
149,16,2265.85592147162
149,17,2031.01215524364
149,18,1736.16746942346
149,19,2072.18531702277
149,20,1758.55537124868
149,21,2472.22235083891
149,22,2326.17008538561
149,23,1669.82901418313
149,24,1402.53404288194
149,25,1600.74058053083
149,26,1536.64278434616
149,27,1368.89209091481
149,28,2503.57299503573
149,29,2099.25046489519
149,30,2024.71908974843
150,1,1042.34514814467
150,2,1805.72222036016
150,3,924.86709115204
150,4,1531.77190812633
150,5,1548.19735239558
150,6,1546.82728351785
150,7,1727.38744072714
150,8,1463.28454579123
150,9,742.980722392265
150,10,1912.01253840505
150,11,1852.04991035407
150,12,1620.91672286585
150,13,1864.54231148178
150,14,1300.80515055512
150,15,1392.97056414407
150,16,2149.02222031075
150,17,2074.06117737045
150,18,1610.54493152085
150,19,2063.87055741008
150,20,1569.54308321967
150,21,2377.9524245317
150,22,2284.7833329318
150,23,1995.19468219263
150,24,1732.2676633106
150,25,1632.65619174221
150,26,1875.2955398377
150,27,1658.64891550496
150,28,2406.41873392465
150,29,2135.86002625556
150,30,2154.95102576297
151,1,1323.19280602417
151,2,462.763737802549
151,3,464.36771965006
151,4,331.149257086442
151,5,1177.56418682001
151,6,822.638201958678
151,7,564.491815703262
151,8,1720.87488435389
151,9,622.288064772265
151,10,1129.7583971778
151,11,560.841615743163
151,12,306.620184531868
151,13,500.223345648191
151,14,1061.04910964038
151,15,594.094592883256
151,16,1579.33350325361
151,17,1176.61266792198
151,18,1166.1591653653
151,19,1272.46541647356
151,20,1279.01423611331
151,21,1732.35163398283
151,22,1536.43990679105
151,23,659.271831398978
151,24,390.50923924245
151,25,839.325797738012
151,26,528.388585208468
151,27,363.186899948244
151,28,1764.23791704076
151,29,1244.29664363426
151,30,1084.93455750148
152,1,1348.33474675638
152,2,2799.30801505974
152,3,1873.1446143385
152,4,2566.37121710738
152,5,1989.17360150198
152,6,2195.64759985397
152,7,2543.57540562875
152,8,1468.93374844993
152,9,1758.85326903095
152,10,2475.07443303923
152,11,2723.33947618953
152,12,2627.25095789429
152,13,2818.59553911981
152,14,1792.07197006179
152,15,2143.70531317421
152,16,2513.01582420157
152,17,2668.63187504854
152,18,2070.6427594102
152,19,2594.52781586475
152,20,1947.41926087509
152,21,2742.20338438389
152,22,2738.8927521372
152,23,2891.9188030968
152,24,2654.06958695927
152,25,2286.5760822779
152,26,2792.31926748208
152,27,2555.96777519352
152,28,2762.4722685949
152,29,2713.99379913247
152,30,2842.53786995272
153,1,440.164819174428
153,2,1330.52226603772
153,3,642.661579323217
153,4,1252.44626720979
153,5,431.36809674473
153,6,476.460509306701
153,7,866.820568295159
153,8,795.7809064915
153,9,791.213474976168
153,10,798.008262705103
153,11,1079.12821884059
153,12,1219.43402473577
153,13,1271.75581542943
153,14,194.857717387313
153,15,460.324035387504
153,16,1025.70036344701
153,17,977.800665137565
153,18,483.494121145122
153,19,942.315599139448
153,20,483.541068445967
153,21,1250.17005610083
153,22,1153.28278702823
153,23,1260.10153376723
153,24,1079.01533901182
153,25,567.83924779876
153,26,1193.82761072649
153,27,960.993220686435
153,28,1279.47775441747
153,29,1032.87599619501
153,30,1124.41621142284
154,1,616.476174935231
154,2,1848.89124303431
154,3,923.546022493458
154,4,1633.52599766827
154,5,1202.07349454852
154,6,1304.35960188023
154,7,1601.80407956939
154,8,1005.16353537045
154,9,839.995604667968
154,10,1632.95032964422
154,11,1772.22472436365
154,12,1681.57444493099
154,13,1862.83634101075
154,14,964.815083692397
154,15,1213.08298704999
154,16,1792.45371548519
154,17,1814.45028738899
154,18,1274.90236329362
154,19,1772.79422628287
154,20,1199.89691874575
154,21,2026.26821966379
154,22,1965.09236323749
154,23,1938.19655909202
154,24,1697.99739566678
154,25,1395.60074096079
154,26,1836.64118901556
154,27,1601.01121143733
154,28,2052.43887094244
154,29,1869.13172973507
154,30,1948.17099982432
155,1,428.073463139521
155,2,1355.49326905983
155,3,523.3983545176
155,4,1217.11944613557
155,5,676.740562702023
155,6,690.064180604269
155,7,1000.04576636449
155,8,877.838334801816
155,9,610.922308921623
155,10,1037.30515219971
155,11,1188.83901783961
155,12,1216.66681867481
155,13,1329.80780483091
155,14,431.38583354338
155,15,600.08875278727
155,16,1274.65645469654
155,17,1209.61325716473
155,18,732.844052797196
155,19,1185.70264704295
155,20,716.431877895662
155,21,1500.18616683503
155,22,1402.35930820211
155,23,1363.5873229638
155,24,1147.35007229555
155,25,780.576607347982
155,26,1277.06149760198
155,27,1038.01216505
155,28,1529.35196117261
155,29,1267.87886896794
155,30,1330.40588086713
156,1,1017.14311572193
156,2,1626.9741760977
156,3,1350.44707678607
156,4,1711.37891414007
156,5,398.088667410168
156,6,583.314133885851
156,7,972.837053934951
156,8,965.564087182604
156,9,1550.25137173383
156,10,355.832126648888
156,11,1182.02828717077
156,12,1607.6075933846
156,13,1486.30092418748
156,14,644.583385631947
156,15,821.785444163909
156,16,207.123405891128
156,17,498.552764165509
156,18,335.832563409598
156,19,343.798992456793
156,20,404.647568305926
156,21,432.949341996283
156,22,393.241569234266
156,23,1332.56683451345
156,24,1311.52842965468
156,25,567.119696684406
156,26,1350.01077262652
156,27,1205.60486639551
156,28,461.320664418389
156,29,497.217263038743
156,30,779.854895054066
157,1,1246.28627168678
157,2,563.315403766567
157,3,641.369417251734
157,4,633.066364596059
157,5,931.75266730052
157,6,533.489785510382
157,7,202.356765418676
157,8,1572.35386051231
157,9,857.928963558974
157,10,782.879706057659
157,11,300.865489429268
157,12,521.575618100576
157,13,468.991958899402
157,14,884.686171902738
157,15,363.051546190711
157,16,1246.54274729581
157,17,812.413528579811
157,18,900.136805461988
157,19,917.38106259836
157,20,1039.9849972581
157,21,1382.68546566378
157,22,1179.13210995182
157,23,469.304963781653
157,24,273.763690831219
157,25,521.65122465419
157,26,386.556983837265
157,27,153.578602755851
157,28,1414.2205038672
157,29,879.404615008499
157,30,721.803914714966
158,1,695.845742498925
158,2,2023.48412333149
158,3,1455.84047334414
158,4,2016.74872921577
158,5,530.0721892522
158,6,936.655278061854
158,7,1418.91311224343
158,8,397.946277891402
158,9,1593.51310566811
158,10,926.320291993864
158,11,1647.76891672901
158,12,1952.92301958618
158,13,1918.12612736072
158,14,636.235517689682
158,15,1110.88027001482
158,16,713.082457461132
158,17,1103.27972358806
158,18,575.330205803916
158,19,960.411882964366
158,20,421.159784972498
158,21,917.682099684606
158,22,985.609142553874
158,23,1820.12688481668
158,24,1725.7935627884
158,25,980.092252969064
158,26,1802.33517242676
158,27,1606.95918792285
158,28,931.741188844369
158,29,1112.89548611069
158,30,1372.78943365021
159,1,1171.96320316849
159,2,805.92510818192
159,3,808.440495165773
159,4,913.589684859348
159,5,731.560955058438
159,6,327.403781985383
159,7,161.3176258793
159,8,1427.01824326387
159,9,1036.32275214484
159,10,503.406020429595
159,11,390.096870250064
159,12,794.629990992551
159,13,672.596043891971
159,14,752.515499469331
159,15,298.852884878663
159,16,971.332159103163
159,17,535.494160907598
159,18,683.094988015151
159,19,635.815415369806
159,20,840.064389193556
159,21,1101.43185866432
159,22,897.849614454497
159,23,565.720335723527
159,24,491.145868912521
159,25,279.191325235578
159,26,546.726574713177
159,27,384.705228103747
159,28,1132.90483936741
159,29,603.566579735582
159,30,493.508341229814
160,1,1751.93103520375
160,2,2499.14859059551
160,3,1687.54339299848
160,4,2193.31801385444
160,5,2318.6053409214
160,6,2340.92000414514
160,7,2506.56497722631
160,8,2100.96715930802
160,9,1479.17166766489
160,10,2703.60856521577
160,11,2613.47777455203
160,12,2309.80074089471
160,13,2585.82898657149
160,14,2073.51415148115
160,15,2185.59152625633
160,16,2916.89278384298
160,17,2867.97013412383
160,18,2385.7974531365
160,19,2853.92603803863
160,20,2327.69502399437
160,21,3148.97662760576
160,22,3068.46709230072
160,23,2743.61012891422
160,24,2475.57099244395
160,25,2427.0562929378
160,26,2617.12969386382
160,27,2414.84681100572
160,28,3176.32634064381
160,29,2929.31934425437
160,30,2947.44072781664
161,1,762.925080804134
161,2,1375.48525520611
161,3,454.009513962997
161,4,1142.95422087093
161,5,1118.13075457779
161,6,1058.22403107799
161,7,1229.08511801121
161,8,1232.48138091157
161,9,345.283931374016
161,10,1431.37120822666
161,11,1364.36103224572
161,12,1201.05454511674
161,13,1408.61471439313
161,14,874.954237716144
161,15,893.126412635564
161,16,1711.5038060321
161,17,1584.84580878338
161,18,1169.53826634017
161,19,1586.53198236977
161,20,1160.90673284808
161,21,1932.96238637464
161,22,1819.45823059354
161,23,1515.89666259385
161,24,1259.87357325902
161,25,1141.24192053759
161,26,1402.25583727947
161,27,1176.54097102681
161,28,1962.85772896022
161,29,1648.40884935103
161,30,1654.99328240962
162,1,842.697695062414
162,2,2329.74692460236
162,3,1406.8876791266
162,4,2119.67892370398
162,5,1485.11367598547
162,6,1682.51436451116
162,7,2037.5732947666
162,8,1034.42109899166
162,9,1324.53178706337
162,10,1965.51023872097
162,11,2223.24197291965
162,12,2165.24402645673
162,13,2335.54036432677
162,14,1281.41209264998
162,15,1634.91261010635
162,16,2027.38996710505
162,17,2158.09936163298
162,18,1565.82974432517
162,19,2088.21018202094
162,20,1450.03948170314
162,21,2259.51600442981
162,22,2242.25892290095
162,23,2394.86471471054
162,24,2164.43693879262
162,25,1773.43243715823
162,26,2300.20744884143
162,27,2062.14361492515
162,28,2281.49091701285
162,29,2204.67465280738
162,30,2329.42176116904
163,1,479.18671918998
163,2,1996.87306892769
163,3,1333.15963947699
163,4,1950.67675146639
163,5,560.695832889686
163,6,951.450575967071
163,7,1435.56166309058
163,8,181.060323676644
163,9,1444.07548828698
163,10,1034.4149422601
163,11,1665.00708818279
163,12,1905.27149403668
163,13,1910.79458369411
163,14,563.989959910483
163,15,1081.17215718685
163,16,913.517978260685
163,17,1225.2552419452
163,18,630.249033622429
163,19,1100.13674311061
163,20,462.275170825375
163,21,1132.33651327983
163,22,1170.51223394111
163,23,1843.73214078936
163,24,1715.61126500909
163,25,1013.60885601712
163,26,1808.1669871801
163,27,1595.01798101484
163,28,1149.53598984912
163,29,1246.86372203652
163,30,1476.10832284484
164,1,1428.56813229831
164,2,1038.034463422
164,3,1211.29083972739
164,4,1232.08602049233
164,5,853.613459528706
164,6,557.296334841219
164,7,445.215003534523
164,8,1578.0723281169
164,9,1439.35292721594
164,10,391.841147648025
164,11,555.95857533477
164,12,1088.95416883811
164,13,866.140136708334
164,14,978.621060360991
164,15,668.072846336769
164,16,809.173572936868
164,17,261.58686248201
164,18,778.561048315644
164,19,423.285250522459
164,20,945.585320734294
164,21,858.291851224058
164,22,631.087706886109
164,23,654.931637169112
164,24,741.678066329387
164,25,466.234664603169
164,26,718.018750180001
164,27,679.598846534569
164,28,886.074105534527
164,29,304.999310365736
164,30,94.0736349702012
165,1,1248.38575213131
165,2,1255.09302757313
165,3,1230.68403566459
165,4,1401.86815027335
165,5,628.075542398648
165,6,455.345139736655
165,7,608.138316977605
165,8,1336.8541360193
165,9,1455.00990693473
165,10,126.975617202125
165,11,781.478501846269
165,12,1273.98788563507
165,13,1095.48558145464
165,14,801.486910240899
165,15,652.672416215111
165,16,533.676314042273
165,17,75.6927945252244
165,18,547.072492558691
165,19,153.421007760482
165,20,705.816649140102
165,21,618.946277364118
165,22,406.143973099263
165,23,909.94883958276
165,24,943.086948666199
165,25,374.397793640725
165,26,950.648886931122
165,27,856.053809903987
165,28,649.45155296184
165,29,134.882595006783
165,30,326.468904822469
166,1,663.228454517725
166,2,1673.85931465788
166,3,747.788704457633
166,4,1448.19873327645
166,5,1176.22171960269
166,6,1217.93751120709
166,7,1469.57850334847
166,8,1100.42278013254
166,9,649.034992041276
166,10,1567.9813027086
166,11,1626.54787466665
166,12,1502.57323099639
166,13,1697.17862104168
166,14,930.154644599401
166,15,1097.24331220678
166,16,1776.15404084762
166,17,1740.21188414305
166,18,1242.17057471124
166,19,1715.15733879462
166,20,1191.64997394815
166,21,2007.05987325827
166,22,1924.93808911542
166,23,1786.94429625498
166,24,1539.17647596746
166,25,1307.37909988838
166,26,1679.85280144248
166,27,1447.67812967056
166,28,2034.87564110446
166,29,1798.80538519122
166,30,1849.79628638429
167,1,1070.38580737055
167,2,2610.47492280949
167,3,1687.85111626579
167,4,2400.0264999624
167,5,1706.54229456945
167,6,1934.53817636991
167,7,2306.42889579637
167,8,1170.07458769775
167,9,1602.65071999018
167,10,2198.24931641277
167,11,2496.41851757738
167,12,2446.20723389279
167,13,2614.6580037637
167,14,1519.24871823636
167,15,1901.1581596822
167,16,2219.26597011409
167,17,2393.35273115083
167,18,1788.52007032136
167,19,2312.94918427779
167,20,1659.89011390147
167,21,2447.36730129491
167,22,2449.51586636741
167,23,2669.51548579775
167,24,2442.08958569235
167,25,2024.51912240158
167,26,2576.96486977324
167,27,2338.48443035366
167,28,2467.17775149955
167,29,2436.35444750485
167,30,2577.9898555663
168,1,1396.12753189794
168,2,1109.78533071781
168,3,1235.14445757903
168,4,1294.06876991394
168,5,804.302227827181
168,6,539.31497939537
168,7,499.652163686579
168,8,1525.34014733181
168,9,1463.22332128868
168,10,325.32491800938
168,11,627.812203413854
168,12,1153.99680423204
168,13,939.930128184457
168,14,945.142411574134
168,15,676.92075329514
168,16,730.376384406864
168,17,182.251975419435
168,18,726.84624434778
168,19,344.704478606291
168,20,891.982793454599
168,21,779.750205268526
168,22,553.058686264596
168,23,732.74783464314
168,24,809.098476858698
168,25,447.879679371197
168,26,792.055639071152
168,27,740.635701846342
168,28,807.782538082299
168,29,226.466978232717
168,30,123.629341364157
169,1,786.706513157781
169,2,1492.37789352829
169,3,576.139179560676
169,4,1249.97713492157
169,5,1202.89776348146
169,6,1170.25771569634
169,7,1354.46392245495
169,8,1248.49804304317
169,9,443.002491379234
169,10,1539.41913066622
169,11,1490.18911553656
169,12,1315.32036679976
169,13,1530.3817843813
169,14,956.508819888858
169,15,1013.39911259366
169,16,1801.0721207008
169,17,1697.57255380667
169,18,1259.07801165387
169,19,1693.08376073691
169,20,1237.305299392
169,21,2025.86841687773
169,22,1920.71279898771
169,23,1641.08112207173
169,24,1384.07978749063
169,25,1255.04298161105
169,26,1526.64642414925
169,27,1301.88398402407
169,28,2055.2357828225
169,29,1760.18084594578
169,30,1775.35393888458
170,1,249.892048568621
170,2,1883.13744082048
170,3,1013.92556226159
170,4,1730.72244242348
170,5,891.448901726838
170,6,1102.99857419734
170,7,1496.25186541566
170,8,590.002360652456
170,9,1023.52959530611
170,10,1371.65003055033
170,11,1699.38328718919
170,12,1740.69251421681
170,13,1856.48697492418
170,14,688.67841146692
170,15,1087.84895642869
170,16,1448.30930012157
170,17,1565.08550775092
170,18,971.741679292232
170,19,1493.62088221941
170,20,861.959047117555
170,21,1682.24554488845
170,22,1652.2676383462
170,23,1877.73161686968
170,24,1671.75262583296
170,25,1192.53396651974
170,26,1798.22839273501
170,27,1559.82207995365
170,28,1705.89929690797
170,29,1610.68420493982
170,30,1745.38825439713
171,1,1299.9083404244
171,2,904.686341432281
171,3,1015.81592487048
171,4,1065.87155032148
171,5,777.349947098055
171,6,419.095594426318
171,7,267.608071931321
171,8,1499.49334686346
171,9,1243.75941427957
171,10,408.50293903756
171,11,432.071120379489
171,12,931.035955150298
171,13,745.396841728285
171,14,858.266648283251
171,15,484.400889840943
171,16,875.029391354218
171,17,370.792837611807
171,18,712.260868831583
171,19,503.812562169365
171,20,879.624191909029
171,21,968.73566219687
171,22,750.80489398457
171,23,572.235108260389
171,24,594.036667187323
171,25,335.978999022887
171,26,601.632324352542
171,27,513.729416519417
171,28,998.889389217059
171,29,433.730238259777
171,30,286.15395518332
172,1,1212.03290532927
172,2,1846.6559277542
172,3,1608.34306417206
172,4,1951.43123715624
172,5,634.734754271348
172,6,835.716695186167
172,7,1190.13423086181
172,8,1070.66328563967
172,9,1807.27130745236
172,10,550.135376448039
172,11,1385.57206577754
172,12,1840.74193391905
172,13,1696.59408595276
172,14,881.570080325525
172,15,1075.4188585966
172,16,80.1485169306009
172,17,628.298368396871
172,18,583.493501181357
172,19,465.944677716364
172,20,613.521820098667
172,21,236.244149024426
172,22,342.050074592189
172,23,1522.4206408818
172,24,1530.89452234009
172,25,810.539449914578
172,26,1555.14167312871
172,27,1430.97439498421
172,28,254.220082774141
172,29,598.949612264283
172,30,905.903714431437
173,1,1144.87236209736
173,2,2733.41525355885
173,3,1814.29757902195
173,4,2530.26818668291
173,5,1769.94904435712
173,6,2020.31305560567
173,7,2407.97958503901
173,8,1188.14059859483
173,9,1737.31080456239
173,10,2267.35107595769
173,11,2603.23399848701
173,12,2572.03469190702
173,13,2731.895553228
173,14,1595.86507167089
173,15,2000.69227980284
173,16,2259.72630293934
173,17,2463.71395970255
173,18,1852.26848459102
173,19,2375.61732658227
173,20,1715.74650198095
173,21,2484.16896543667
173,22,2499.24420793778
173,23,2778.29164687658
173,24,2556.25281618028
173,25,2109.1423975885
173,26,2689.31644711903
173,27,2450.37115056939
173,28,2502.49898175857
173,29,2503.80940502266
173,30,2658.81537351117
174,1,1274.44639973445
174,2,891.678597737229
174,3,983.520102227392
174,4,1044.65456161151
174,5,761.407712188204
174,6,394.717028054475
174,7,246.49735554055
174,8,1481.41326534159
174,9,1211.50558816729
174,10,412.586559542978
174,11,424.410559376572
174,12,912.152983478752
174,13,735.811953177326
174,14,834.787677017428
174,15,452.339891715719
174,16,882.305163533508
174,17,389.855309024277
174,18,698.355803753039
174,19,516.389989434933
174,20,864.952232255964
174,21,983.099394593043
174,22,767.569878281387
174,23,571.842074463299
174,24,578.952580987259
174,25,314.20063793739
174,26,593.907133162583
174,27,494.174369790651
174,28,1013.56503825096
174,29,454.449477744304
174,30,318.565787899126
175,1,142.113814505379
175,2,1631.93381202893
175,3,869.663903499133
