id,latitud,longitud
1,-34.5747972133939,-58.3996993901721
2,-34.5758889330622,-58.3992247795852
3,-34.5897969632814,-58.3928572859889
4,-34.595873389407,-58.4078935678927
5,-34.5946267540835,-58.3927814783047
6,-34.5978600567115,-58.3940473271239
7,-34.5894698327068,-58.4052485005335
8,-34.5991946266133,-58.4023579732655
9,-34.5948612804092,-58.3996520302355
10,-34.5907944172869,-58.4045003591759
11,-34.5935883681466,-58.394465629182
12,-34.5860933461985,-58.4039492794947
13,-34.5964904556693,-58.4058340999332
14,-34.5836789950777,-58.4054812609688
15,-34.5985787253006,-58.3869678392848
16,-34.5757981590195,-58.3913947293432
17,-34.5953968159979,-58.3927601786566
18,-34.5857229602296,-58.3925595057819
19,-34.5966546274579,-58.4016631881162
20,-34.5970980012622,-58.3971864939137
21,-34.5910222268648,-58.4070626339306
22,-34.589429903917,-58.4087317455596
23,-34.582424902226,-58.3912344071254
24,-34.578690677028,-58.3903428953629
25,-34.5941441645152,-58.4071852127209
26,-34.5739538926336,-58.3954305461228
27,-34.5827868434143,-58.3953873371768
28,-34.5726751523996,-58.3972438441259
29,-34.5795839634712,-58.3963488329825
30,-34.5965372113116,-58.3969332603097
31,-34.5943930701903,-58.4087737287344
32,-34.5859888989017,-58.3917821534418
33,-34.5750449638823,-58.3949416159087
34,-34.5989780320842,-58.3932546192992
35,-34.5958617314014,-58.408949724858
36,-34.5841389703568,-58.3925390707379
37,-34.5939052068537,-58.4057792758863
38,-34.5973238092533,-58.3927161958013
39,-34.593649525337,-58.4063403630183
40,-34.5872080077477,-58.4086726449956
41,-34.5935619834041,-58.3932404557827
42,-34.5942978199784,-58.3953850342362
43,-34.5954619732021,-58.4124725629448
44,-34.5876771461094,-58.3919350251455
45,-34.5870027289745,-58.4084605860208
46,-34.5916989537824,-58.4027004765125
47,-34.5906572530715,-58.3976100219521
48,-34.5881619002876,-58.3851431258504
49,-34.5790329739151,-58.3957015667741
50,-34.5988574449035,-58.3929238864517
51,-34.5890483372169,-58.3890201700523
52,-34.5908008635173,-58.4017125376798
53,-34.5962454361639,-58.3897433553348
54,-34.5897350420522,-58.3932888039902
55,-34.5903521718608,-58.4028701230887
56,-34.5760225186957,-58.4007754059533
57,-34.5884079633362,-58.4052721063641
58,-34.595113236635,-58.4108753963626
59,-34.579590605521,-58.3918029206916
60,-34.5869452581791,-58.3950951093223
61,-34.580708938187,-58.3957591060457
62,-34.5753923313145,-58.3960095787288
63,-34.5925268716267,-58.4059712806768
64,-34.5759752234169,-58.3889239540411
65,-34.5777754355753,-58.3827827311341
66,-34.59261329166,-58.3884277766464
67,-34.5871498796539,-58.3991465064698
68,-34.5971191408557,-58.4125092500119
69,-34.5864450060894,-58.3865309522807
70,-34.5943806306195,-58.3921700242423
71,-34.59241351079,-58.4049224409466
72,-34.5807901400838,-58.3917203284691
73,-34.5965733500078,-58.4129715990056
74,-34.5939362031636,-58.3956825061027
75,-34.5961411629855,-58.4112524959709
76,-34.5890528191702,-58.409528653985
77,-34.5931911879309,-58.3884778571093
78,-34.5900670069186,-58.392604329212
79,-34.579812456138,-58.3935293858293
80,-34.5868824711629,-58.4059389196352
81,-34.5986515363775,-58.387698989165
82,-34.5773419575693,-58.3902187805625
83,-34.5861346844616,-58.3974318131522
84,-34.5971858297802,-58.4130582556596
85,-34.5942116962654,-58.3908532530887
86,-34.5776192120797,-58.387461529586
87,-34.5987288827255,-58.3899360049235
88,-34.5844357420305,-58.3884258265753
89,-34.5854297419856,-58.3958222901142
90,-34.5954833315173,-58.3997483299039
91,-34.5954894065573,-58.3919988938782
92,-34.5872541296004,-58.4083517739436
93,-34.5786618348556,-58.3945900819887
94,-34.5908202195134,-58.3990103068169
95,-34.5877594377255,-58.3956700115256
96,-34.5891151058218,-58.397835528911
97,-34.5860947363398,-58.4066172501805
98,-34.588717019892,-58.3923241431113
99,-34.5856123723508,-58.404655293195
100,-34.5712949348307,-58.3837558082858
101,-34.5871918770887,-58.403605765672
102,-34.5879038182197,-58.3983470976761
103,-34.5933300559582,-58.4042123111894
104,-34.5857293274229,-58.398927726698
105,-34.5915601070681,-58.4099576385071
106,-34.5881893413106,-58.3854222574789
107,-34.5941667378308,-58.3979494239286
108,-34.5974420797776,-58.410426742124
109,-34.5735272170425,-58.3905662060445
110,-34.584735849366,-58.4053503535688
111,-34.5851006227375,-58.4023555670295
112,-34.5964217997279,-58.4059313962589
113,-34.5836771172816,-58.3874616064925
114,-34.5736102282117,-58.3944883468142
115,-34.5866665392111,-58.4013420711699
116,-34.5894035818934,-58.3904243661005
117,-34.5891295340719,-58.3983071577279
118,-34.5860773581191,-58.4079451245156
119,-34.5730858847249,-58.3999080743913
120,-34.5934754854215,-58.4043297253201
121,-34.5857740193869,-58.3996426919911
122,-34.5964226908313,-58.3974842089951
123,-34.5865769023843,-58.3881406844312
124,-34.5986931643244,-58.3992248863479
125,-34.5920133923043,-58.4029296480298
126,-34.5863661995406,-58.3915757223689
127,-34.5908746465809,-58.4068167384587
128,-34.5719790004716,-58.396218222203
129,-34.574049025042,-58.4021849657465
130,-34.5882719387134,-58.3952148773213
131,-34.5763874640191,-58.3924454353973
132,-34.5952570034501,-58.3950478108477
133,-34.5844694584099,-58.4020459204814
134,-34.5944181218752,-58.4092026155517
135,-34.5958236077675,-58.400450465756
136,-34.5878964050529,-58.4031954394342
137,-34.5835912872831,-58.3919486334442
138,-34.5736946861291,-58.3981041919812
139,-34.5806618958867,-58.3943973829941
140,-34.5940405464366,-58.4114163576084
141,-34.5851382803952,-58.3998032612388
142,-34.591811457602,-58.4108345651913
143,-34.5846715062733,-58.3881960852316
144,-34.5970455729811,-58.3908131877754
145,-34.5854348370367,-58.3872479208637
146,-34.5753336170129,-58.3977264057873
147,-34.5981903054913,-58.4003212439375
148,-34.5725889961897,-58.3868843988169
149,-34.5778997413705,-58.3959002383911
150,-34.5883600896768,-58.3898274105894
151,-34.5803769375572,-58.3953043775066
152,-34.5925499659701,-58.4025271746467
153,-34.5987510377727,-58.399204162417
154,-34.5950534897629,-58.3925766942626
155,-34.5927960025297,-58.3947533498195
156,-34.5917475946257,-58.3896034770352
157,-34.589178141968,-58.3913819713808
158,-34.5884571245488,-58.4055442578303
159,-34.5904564785104,-58.4000052391379
160,-34.5748726891486,-58.3979724027704
161,-34.5782683531492,-58.3961141272651
162,-34.587623610964,-58.3864118959529
163,-34.5720788831848,-58.3834158005489
164,-34.5741816477737,-58.3935086040849
165,-34.5971474498998,-58.3952924666503
166,-34.5916689451254,-58.3956824138107
167,-34.5861338494725,-58.4028682472924
168,-34.5975734539467,-58.4094876231226
169,-34.5769586889047,-58.3840725341115
170,-34.573525074674,-58.3975546068891
171,-34.5833954337139,-58.3950817353287
172,-34.5755012047752,-58.4000215908322
173,-34.5929528036283,-58.3944131345328
174,-34.5865843008602,-58.3920328450037
175,-34.5744647919494,-58.4012571170448
176,-34.5846574992599,-58.3880632561331
177,-34.5991931239286,-58.3897533402582
178,-34.5889386220856,-58.4031612850199
179,-34.5742689225547,-58.4007164327857
180,-34.575076793305,-58.3983186070564
181,-34.5929497164656,-58.3974481794561
182,-34.5942776298335,-58.4045648787304
183,-34.5735812494575,-58.3981620066549
184,-34.5736147621677,-58.3914247022571
185,-34.598732852021,-58.3916113485692
186,-34.5864377068267,-58.3866540160616
187,-34.5959800964312,-58.3963530830057
188,-34.5838132063954,-58.3893245067973
189,-34.587955926016,-58.4019002666895
190,-34.5973102717675,-58.4001585218599
191,-34.5915246232537,-58.4053718323571
192,-34.5935596651527,-58.3918237111812
193,-34.5773567106324,-58.395159613654
194,-34.5847351359308,-58.4024671212914
195,-34.5736441080714,-58.3941985235407
196,-34.5947674162749,-58.4127325927876
197,-34.5842425871513,-58.3871458411959
198,-34.5766314117947,-58.3921320914049
199,-34.5923957226373,-58.3916321057029
200,-34.5888991460287,-58.4027065760083
201,-34.599032125063,-58.3919883602628
202,-34.5794895840081,-58.3935641472949
203,-34.5880985971875,-58.3959234602681
204,-34.5932769734207,-58.3951445779541
205,-34.5830904408267,-58.39481763121
206,-34.5855703262074,-58.4021722391256
207,-34.5932298217269,-58.4052915104222
208,-34.5963557386284,-58.4049110106763
209,-34.588998251498,-58.3997884458212
210,-34.5847207213885,-58.3977712922013
211,-34.5770493262973,-58.3859884633347
212,-34.5763980091245,-58.3972108448692
213,-34.5927452337714,-58.3947112821
214,-34.5739329628729,-58.4007893496805
215,-34.590271184495,-58.4101026717484
216,-34.5722822958827,-58.3933619178496
217,-34.5984313406537,-58.4021293503731
218,-34.5852214712099,-58.4003180611899
219,-34.5935842971419,-58.3978321363191
220,-34.5919686221209,-58.3926808743364
221,-34.5764720949534,-58.384009954451
222,-34.5969307559674,-58.397313028967
223,-34.5847957617035,-58.4043124804546
224,-34.5956370467844,-58.4012652552765
225,-34.589715781305,-58.4050651166602
226,-34.5845108669115,-58.3926003821986
227,-34.5907023796976,-58.4010791058223
228,-34.5752976226532,-58.3988979183201
229,-34.5949423272066,-58.3992926877474
230,-34.5887640143841,-58.3987952479508
231,-34.5811463205069,-58.3975742812851
232,-34.5936250294798,-58.4090737749207
233,-34.5798597724961,-58.3921246862684
234,-34.5859704246514,-58.3930121287807
235,-34.5825094065361,-58.3919440261934
236,-34.5867634988353,-58.4035266545929
237,-34.5883298125382,-58.402928739983
238,-34.5841879040175,-58.3868152922048
239,-34.5768316118285,-58.3842476202351
240,-34.5978239487003,-58.4070680422824
241,-34.5955198020094,-58.4045002888283
242,-34.5751179955119,-58.3944260167026
243,-34.5968087861158,-58.4149955754587
244,-34.5758610129995,-58.3943787471797
245,-34.5938707454085,-58.3979498384865
246,-34.5856186972286,-58.4074097852211
247,-34.5861604490269,-58.3860478887489
248,-34.5880021210894,-58.3916957780453
249,-34.5936982332721,-58.3874766277379
250,-34.5973373214793,-58.3931068493077
251,-34.5969227552031,-58.3945769700274
252,-34.5974499103532,-58.3892244783104
253,-34.5762768875972,-58.3932703194525
254,-34.5737309178435,-58.384862695262
255,-34.5961613931661,-58.4105710602097
256,-34.5854947948849,-58.3912990831127
257,-34.5840512353247,-58.3887900565633
258,-34.5844056508722,-58.3993726609583
259,-34.5978676068837,-58.3901740428589
260,-34.5852965811066,-58.387852129573
261,-34.5849919702673,-58.3869394115582
262,-34.5846052420462,-58.3862106903192
263,-34.595057690469,-58.4060283729189
264,-34.5888239995977,-58.3898397121524
265,-34.5826364441859,-58.3930927735913
266,-34.5836554941733,-58.3972844223213
267,-34.5798268554285,-58.3925634180243
268,-34.5810560875442,-58.3974419363845
269,-34.5991691196289,-58.3870690489849
270,-34.5876246899212,-58.3940494592949
271,-34.5972295585708,-58.410889793555
272,-34.5881636463844,-58.3891690051682
273,-34.599034620776,-58.4004097437042
274,-34.5961685876658,-58.4123098141189
275,-34.5882877421833,-58.4000580306012
276,-34.5937126118545,-58.4073130908147
277,-34.5986153977556,-58.3935109951933
278,-34.5781194663846,-58.3843090554772
279,-34.5939838841328,-58.3980562952963
280,-34.5787227651582,-58.3922639794176
281,-34.5887386844109,-58.4035645994092
282,-34.5776946959927,-58.3968977167823
283,-34.5953686900606,-58.3895412659249
284,-34.5720545493278,-58.393519735348
285,-34.571302452456,-58.3852550290801
286,-34.5882040070756,-58.4067254896816
287,-34.5894720044022,-58.3989014132622
288,-34.5799566216501,-58.3964991418143
289,-34.5906422851117,-58.39034425367
290,-34.5850174861049,-58.4013455035147
291,-34.5746166912207,-58.3977033781815
292,-34.5934101202053,-58.3886273224193
293,-34.5840329190006,-58.3963536542792
294,-34.5938956279172,-58.4005049661064
295,-34.5960752918639,-58.4063973958353
296,-34.57222029248,-58.4005922077584
297,-34.5840012547303,-58.3998285504526
298,-34.5842517719237,-58.3914371884614
299,-34.5862759898758,-58.3890554899594
300,-34.5948845529677,-58.3997865755291
301,-34.5956350503684,-58.390829608364
302,-34.5735996678843,-58.3920570362431
303,-34.5872982105632,-58.3930693436373
304,-34.5722940496388,-58.3972649475368
305,-34.5825786621685,-58.3949052767457
306,-34.5933017021281,-58.3923095532153
307,-34.5966554555483,-58.4035597925867
308,-34.5948631811523,-58.3952107004868
309,-34.5771136147839,-58.3977471393683
310,-34.5944808128563,-58.4018827806382
311,-34.5971645768757,-58.4135982006697
312,-34.5854958371916,-58.406618931081
313,-34.5838441162365,-58.3922266563787
314,-34.5870065660311,-58.4066637678017
315,-34.5934226134117,-58.3975438721712
316,-34.5842325024976,-58.4029634545656
317,-34.5938395224103,-58.406500086853
318,-34.576280076213,-58.3939484616731
319,-34.5925563139365,-58.3968160180087
320,-34.595023652703,-58.3897553126214
321,-34.5898651767767,-58.3883915810339
322,-34.5779282430874,-58.3890092854549
323,-34.5964752756525,-58.3892220476187
324,-34.5904662641665,-58.4095650218793
325,-34.5949261840817,-58.3943675903052
326,-34.5862938501143,-58.3972620559653
327,-34.5968625828306,-58.3989045028766
328,-34.5904420257191,-58.4081814712777
329,-34.5932534486722,-58.3955981215972
330,-34.5838870440449,-58.3872083521817
331,-34.5945468300647,-58.4072051815465
332,-34.5944166919987,-58.4145281850371
333,-34.5888046344242,-58.3850077996997
334,-34.597502561025,-58.3994337383477
335,-34.5906190681921,-58.3993442024514
336,-34.5925171693662,-58.3913951181769
337,-34.599142009013,-58.397774895989
338,-34.5978848144379,-58.3990238297066
339,-34.5729133847678,-58.399617494878
340,-34.5942499962754,-58.3936602042824
341,-34.5978888848653,-58.4008510608364
342,-34.593063520742,-58.3879229323434
343,-34.5938251161708,-58.4027802736384
344,-34.5926032988664,-58.4098305731481
345,-34.5780416772424,-58.3873217966072
346,-34.582649389959,-58.3884410130599
347,-34.5920863261659,-58.4071647114004
348,-34.5966978956994,-58.4015671606147
349,-34.5769289991,-58.3847905670251
350,-34.5876366505707,-58.3878682180126
351,-34.5889418924544,-58.4036119793311
352,-34.5807894039216,-58.3968589569321
353,-34.5881660081036,-58.4091327647138
354,-34.5841604484305,-58.398217790732
355,-34.5966393109175,-58.3891892003356
356,-34.5771064885259,-58.3881630437092
357,-34.5730616448473,-58.3914166180101
358,-34.5966180436502,-58.3893964824405
359,-34.5918382401808,-58.3937107919245
360,-34.5930068031667,-58.4101925458726
361,-34.5889281853123,-58.4086371435186
362,-34.5913664838424,-58.4097337293233
363,-34.5733133575363,-58.395080207425
364,-34.5860963695156,-58.3969963641993
365,-34.5903314461163,-58.3889202066316
366,-34.5950230575075,-58.4088200752814
367,-34.5836689183392,-58.393924995159
368,-34.5733427066829,-58.4005890051748
369,-34.5913600818752,-58.4000202262489
370,-34.5922210024309,-58.3916834947123
371,-34.5776414482847,-58.3924016251663
372,-34.5720487586931,-58.3968760398928
373,-34.5899517386653,-58.4066610975423
374,-34.5852156257547,-58.3908756236264
375,-34.5845061113262,-58.3903729089387
376,-34.5874306896392,-58.4074818428805
377,-34.593695903648,-58.4027977972027
378,-34.5774195642419,-58.3844763912925
379,-34.5951347768497,-58.410006382178
380,-34.5872194041777,-58.3939935694569
381,-34.583660302909,-58.3918392011163
382,-34.5944347638359,-58.4044186883035
383,-34.5898714164502,-58.3873173408824
384,-34.5957586746337,-58.4036759681841
385,-34.575732855899,-58.4007638298973
386,-34.5713265080711,-58.3839416053179
387,-34.592152728137,-58.3953018647154
388,-34.5943863455562,-58.4077317750281
389,-34.5915835591002,-58.4106038002697
390,-34.5837613030073,-58.4046330726558
391,-34.5741672889807,-58.3919705795302
392,-34.5816923033811,-58.3955488730324
393,-34.5933102582847,-58.4093058781879
394,-34.5916117554769,-58.4084789186216
395,-34.5827161374971,-58.3988111173712
396,-34.5905277588743,-58.3942521225895
397,-34.5909497806419,-58.4078670754127
398,-34.5715569595577,-58.396822492376
399,-34.5732233575783,-58.3961436120154
400,-34.5950105324254,-58.4116580086866
401,-34.5973707908806,-58.4100851677625
402,-34.5938636533033,-58.3947031009587
403,-34.5731762070183,-58.3926434020783
404,-34.5974161937335,-58.3981486005195
405,-34.5944513946227,-58.4117920847302
406,-34.5719568601747,-58.3847560248155
407,-34.5892321332941,-58.3978324394941
408,-34.5832810573872,-58.3922301927182
409,-34.5926068691301,-58.408625980702
410,-34.5951590239435,-58.3893441843088
411,-34.5761337853161,-58.3863243037605
412,-34.5831562779841,-58.3907065154255
413,-34.5839656731791,-58.3894566768862
414,-34.5755866907249,-58.3938532066198
415,-34.5853668776349,-58.3901364577313
416,-34.5751329327909,-58.4003274970824
417,-34.5884280893173,-58.3998109195287
418,-34.5726077973778,-58.3936563920926
419,-34.5978226054942,-58.3928543861676
420,-34.5729781575856,-58.4000177606885
421,-34.5972180640233,-58.3972862472992
422,-34.587401758974,-58.3854065546141
423,-34.598281873333,-58.4021755108228
424,-34.5869099520752,-58.394541771262
425,-34.5896469199892,-58.407580344382
426,-34.5940942941469,-58.4077149367416
427,-34.5765259214031,-58.3874127791992
428,-34.5837049548024,-58.4016330344803
429,-34.5928315188036,-58.4028127984459
430,-34.5751850225949,-58.3983066769331
431,-34.5990805372611,-58.399878116301
432,-34.5817357260743,-58.3950717314196
433,-34.5922493878661,-58.3908192115436
434,-34.5774674981833,-58.3858206352932
435,-34.5952656818606,-58.3932902252746
436,-34.587266389763,-58.3942898514828
437,-34.5889082824928,-58.4039506934306
438,-34.5961593515043,-58.3960394619439
439,-34.5896082937553,-58.4098726613869
440,-34.5772443175294,-58.3978676127078
441,-34.5946005233303,-58.3988916165001
442,-34.5920007233315,-58.4011834698378
443,-34.5863251016452,-58.3957654668754
444,-34.5945302981979,-58.3876288641767
445,-34.5840400284058,-58.391489160773
446,-34.5723624335937,-58.397401123939
447,-34.5887052683122,-58.3990405986998
448,-34.586522111779,-58.4042434407217
449,-34.5874817033643,-58.3924009855385
450,-34.5971534202222,-58.4097372659448
451,-34.5757517337499,-58.399524848375
452,-34.5755074315417,-58.3952683746
453,-34.5887749292692,-58.4086898033561
454,-34.5943335008756,-58.3912823516492
455,-34.5980180975242,-58.3988405146574
456,-34.5775023164302,-58.3972432950219
457,-34.5909688271149,-58.3935626663836
458,-34.5733637025047,-58.3969956637806
459,-34.5829466988135,-58.3926961427306
460,-34.5725958341657,-58.3966677343602
461,-34.5914074285535,-58.3942735098928
462,-34.5839476900098,-58.3890617537407
463,-34.589453740378,-58.4053177995233
464,-34.5938636294273,-58.3989144385251
465,-34.5951432008414,-58.4113054093274
466,-34.5749543791924,-58.3953692801815
467,-34.5900944895209,-58.4013857476715
468,-34.5865042293404,-58.3926708229504
469,-34.594958522644,-58.4087433664543
470,-34.5745605113044,-58.3968363270327
471,-34.5852348500578,-58.3874320505316
472,-34.5786568683322,-58.3952592686706
473,-34.5871646660663,-58.3921123654367
474,-34.5938994635954,-58.4076764085437
475,-34.5958584470581,-58.4031663601416
476,-34.5987046117932,-58.4025605578792
477,-34.5721978993656,-58.3993851604957
478,-34.5955828092237,-58.3891767535219
479,-34.5777110762504,-58.3924415781743
480,-34.5778950304939,-58.3933271821179
481,-34.5921047377332,-58.4052275337822
482,-34.586533902876,-58.4051989163068
483,-34.5879955921812,-58.3895186577839
484,-34.5964738942,-58.3885425984769
485,-34.581343555697,-58.3921387453371
486,-34.5750646346222,-58.3909670381707
487,-34.5725726673947,-58.3945947563323
488,-34.594835273318,-58.3874871654735
489,-34.5957785458512,-58.3909641469881
490,-34.5730064168191,-58.3993874542778
491,-34.577176857543,-58.3835397971168
492,-34.5878543728532,-58.4016544033705
493,-34.5985241708854,-58.3871155291969
494,-34.5930875879773,-58.400881790203
495,-34.5770868863349,-58.3849000641114
496,-34.57295655806,-58.398553865795
497,-34.588890733183,-58.4089049741549
498,-34.5741802278961,-58.3892184351387
499,-34.5858985279706,-58.4075059055108
500,-34.5772027837609,-58.3864559398861
501,-34.5824854817892,-58.3909864698311
502,-34.58031828453,-58.3954983798121
503,-34.5742840612981,-58.4001826287548
504,-34.5943744668026,-58.3985590390448
505,-34.5961520974245,-58.4063756105745
506,-34.5823720321706,-58.3945785222856
507,-34.590335751202,-58.3970683347664
508,-34.588954478937,-58.4063268303825
509,-34.5956345969764,-58.3880456301858
510,-34.5973289524339,-58.4019966723686
511,-34.5935641757577,-58.410388049685
512,-34.5821126144611,-58.3987072061408
513,-34.5910379852698,-58.3918226527468
514,-34.5856057450139,-58.3987459897323
515,-34.587830852728,-58.401844764495
516,-34.5727420513783,-58.3865000426419
517,-34.5964119388673,-58.3938896375344
518,-34.5970569997513,-58.3962218434733
519,-34.5763844533927,-58.3847300283695
520,-34.591912002433,-58.3987848475173
521,-34.5819840191694,-58.3937106321342
522,-34.5801746479921,-58.3947115711913
523,-34.5782628462198,-58.3951858793976
524,-34.5886834378341,-58.3953648292355
525,-34.5851128476532,-58.3994892412077
526,-34.594723523466,-58.3875535212261
527,-34.5856630496394,-58.3902049740855
528,-34.5941551147725,-58.3997704941113
529,-34.5841039713504,-58.3946723096027
530,-34.5881948446528,-58.3852315761924
531,-34.5899730390762,-58.3969596527094
532,-34.5722789630001,-58.3837206425747
533,-34.5856954481218,-58.407662750194
534,-34.5941175688236,-58.4003471460189
535,-34.5938771386688,-58.4118869973937
536,-34.5849660381737,-58.3864127887404
537,-34.5731965987249,-58.385064184119
538,-34.5765914994394,-58.3969119152096
539,-34.5926876073838,-58.3916531756463
540,-34.5939769688696,-58.3928939802293
541,-34.5903718604386,-58.3976550786136
542,-34.585285922289,-58.3921289573486
543,-34.5906979655002,-58.3922917856409
544,-34.5844662716724,-58.386418622263
545,-34.5841779367304,-58.3936667297148
546,-34.5960554619446,-58.4028723135656
547,-34.5877077062667,-58.3862879798658
548,-34.5891922993662,-58.3931553554806
549,-34.5958819804918,-58.3988576832626
550,-34.5728209448838,-58.3993834816746
551,-34.5991689478815,-58.3936808369485
552,-34.5880792864078,-58.392748846656
553,-34.5936050863218,-58.396965105062
554,-34.5991323814811,-58.4004111089577
555,-34.5880732954337,-58.4079909981831
556,-34.5774020879907,-58.3954776826394
557,-34.5854887304151,-58.3884015527333
558,-34.5752582160428,-58.3988327964044
559,-34.5737858768037,-58.3977961674772
560,-34.5979895745424,-58.3870634472422
561,-34.583388764772,-58.3928409365958
562,-34.5970798861469,-58.389859849279
563,-34.5733465764705,-58.4000962092101
564,-34.5918564185341,-58.4022215039597
565,-34.597096595348,-58.4145290585272
566,-34.5830953709234,-58.3984384552527
567,-34.5844385992571,-58.3906781915192
568,-34.5873155090321,-58.3973555211985
569,-34.5886359143369,-58.407796974121
570,-34.5939074677679,-58.4034357535715
571,-34.5743785430666,-58.3990708434422
572,-34.5852706886862,-58.4054770720592
573,-34.5962118673155,-58.4106347787507
574,-34.5924123468099,-58.406446664508
575,-34.5753202573786,-58.3960662042849
576,-34.574357363191,-58.4007894808084
577,-34.5811212591875,-58.3920960425789
578,-34.5978558298185,-58.3923372159626
579,-34.5821546088966,-58.3905872008513
580,-34.5893495355297,-58.3939156028206
581,-34.5818795020314,-58.390240357033
582,-34.5860578569242,-58.4040805101952
583,-34.5719114858104,-58.3838956682461
584,-34.5959848317825,-58.4030885491105
585,-34.5970592283646,-58.4072977325384
586,-34.5743938952274,-58.3961974590113
587,-34.5977230672371,-58.397454028891
588,-34.5895305254484,-58.3927341061732
589,-34.5899678416026,-58.4061074302049
590,-34.5742670277819,-58.3903993708196
591,-34.5882687394601,-58.3922946235943
592,-34.5864751868431,-58.3860331405575
593,-34.5834563517439,-58.3979083753316
594,-34.5921451210915,-58.4042125551822
595,-34.5922160675726,-58.3956758126157
596,-34.5897736589421,-58.409276791873
597,-34.5959439565298,-58.3978196985843
598,-34.5903043633428,-58.4104183088155
599,-34.5737329559944,-58.3935286514995
600,-34.5848802953618,-58.3956962869666
601,-34.5851479176596,-58.3921198683574
602,-34.5838419188214,-58.393522162346
603,-34.5906061953218,-58.3955774998
604,-34.5913791918339,-58.4113255640103
605,-34.5982321419642,-58.3914520163029
606,-34.5912887199521,-58.4079447746763
607,-34.5946050816557,-58.4142454658964
608,-34.584490128561,-58.4042978738796
609,-34.5950626642966,-58.4073682993338
610,-34.5869728399119,-58.4070395965998
611,-34.5814864717183,-58.3959000511978
612,-34.5737899012832,-58.3999124113699
613,-34.5890685326498,-58.3930897973071
614,-34.5893334719315,-58.4097334629938
615,-34.5973230278948,-58.3952068720414
616,-34.5975995286339,-58.3887453302882
617,-34.5989609897992,-58.3937675482122
618,-34.5724720482881,-58.3870728678011
619,-34.5878423154953,-58.4022020091872
620,-34.5770797396742,-58.384093867966
621,-34.5910553861597,-58.4011344305458
622,-34.592515384018,-58.3987296844825
623,-34.5913331915653,-58.4018813796
624,-34.5727643316352,-58.3927979553928
625,-34.5971943758518,-58.3881868632646
626,-34.5769541610149,-58.3895654028377
627,-34.597305762021,-58.4148023138397
628,-34.5977161854781,-58.3877315232102
629,-34.5943502905619,-58.3934499983872
630,-34.5822722206384,-58.3947142995335
631,-34.5959686561952,-58.4134291132981
632,-34.5719968826896,-58.3959609067095
633,-34.5985131442428,-58.3950753625582
634,-34.5973694672462,-58.4099140617392
635,-34.5866166695274,-58.4067082536223
636,-34.5936305108931,-58.3922990566845
637,-34.5781107360068,-58.3917943052893
638,-34.5734761395381,-58.4014059847499
639,-34.5899985108583,-58.4038705699642
640,-34.5925747586807,-58.4106692430102
641,-34.5733666106199,-58.3846716138616
642,-34.5896751602019,-58.3955496792967
643,-34.5875744249415,-58.3903669277368
644,-34.5928558995588,-58.408673771679
645,-34.597254492025,-58.407931011893
646,-34.5888959556977,-58.4007924489722
647,-34.5830748138615,-58.3963561214811
648,-34.5903635446495,-58.3931727885055
649,-34.5949731462014,-58.3923818819988
650,-34.5961357685882,-58.4097537556894
651,-34.5776209274101,-58.3942968328512
652,-34.5886739213974,-58.4031228138298
653,-34.5743502478942,-58.3930294120044
654,-34.5950025414128,-58.4124925016681
655,-34.5780740224774,-58.3842702598354
656,-34.5912066606009,-58.3955250399135
657,-34.5992438786337,-58.4004142640528
658,-34.5939082188411,-58.4114996269714
659,-34.5864031284778,-58.4022542813567
660,-34.5920895305693,-58.3894188349882
661,-34.5723448292945,-58.3987470589514
662,-34.5899289315971,-58.3976854833531
663,-34.576013598679,-58.3973411937212
664,-34.5924036854391,-58.3925568196114
665,-34.5951236844476,-58.4049844228141
666,-34.5836696384571,-58.3991575446253
667,-34.590704562139,-58.3932092558595
668,-34.5746443468436,-58.3929105989107
669,-34.5773632842673,-58.3908052035969
670,-34.5724714758252,-58.3942427854423
671,-34.5870561625535,-58.4017355661891
672,-34.5880527501234,-58.3984639801789
673,-34.5835123259934,-58.3984231840512
674,-34.5781517357342,-58.3943672117589
675,-34.5926651870739,-58.412629318946
676,-34.5972007462655,-58.4122916376405
677,-34.5971978866199,-58.3996634164082
678,-34.571256610415,-58.3896805285616
679,-34.5740044155696,-58.3945219433594
680,-34.5928546330823,-58.3998353790043
681,-34.5719447783697,-58.3845173470598
682,-34.5715817159311,-58.3839962225231
683,-34.5722799273363,-58.3868719946564
684,-34.5800126840131,-58.3957489697444
685,-34.5928116758036,-58.4014241014722
686,-34.5923870648012,-58.4098652285879
687,-34.5787421479044,-58.3903407064586
688,-34.5886179706979,-58.3933299736548
689,-34.5975612201969,-58.410372584857
690,-34.5948452728753,-58.3902474215756
691,-34.5971721380562,-58.4108741392111
692,-34.5874045046351,-58.3921732587316
693,-34.5983498953111,-58.3935323664686
694,-34.5840849330547,-58.3946703768236
695,-34.5839043393571,-58.3869732681228
696,-34.5835117426985,-58.390385867256
697,-34.596236575402,-58.3900837106797
698,-34.5951168840661,-58.4106126667119
699,-34.5778937973949,-58.3886449136925
700,-34.5814147644057,-58.3964903806754
701,-34.598176930711,-58.3973321556701
702,-34.5848590149736,-58.4001431391579
703,-34.5917121596569,-58.4071324320226
704,-34.5819177556277,-58.3929684208787
705,-34.5896975853369,-58.3949907869752
706,-34.5920786532974,-58.4033395620784
707,-34.575484352121,-58.4012361452666
708,-34.5770854877464,-58.3977073985415
709,-34.586010163208,-58.3936215801575
710,-34.5894573727667,-58.3922852133201
711,-34.5804250684634,-58.3977669161477
712,-34.5901970488885,-58.3999507616943
713,-34.5896895360494,-58.4092952701898
714,-34.5842948400385,-58.3975488353879
715,-34.5853001917534,-58.3991215109529
716,-34.5779808263185,-58.3843268561049
717,-34.5924124929331,-58.3967146782735
718,-34.5978091669967,-58.4148502713966
719,-34.5955211211589,-58.4000940419023
720,-34.587578624141,-58.3847974292793
721,-34.5806625602437,-58.3937566009035
722,-34.5718332668072,-58.3844285085242
723,-34.5888746637909,-58.3893643873744
724,-34.5869014491643,-58.3880747172628
725,-34.5897496147644,-58.394354440483
726,-34.5825338221654,-58.3933790126256
727,-34.5851629638748,-58.406217590364
728,-34.5909198090859,-58.3969991883843
729,-34.5931767448265,-58.3881674452928
730,-34.584974520777,-58.3892329838164
731,-34.5890948184854,-58.4001823638806
732,-34.5944944755777,-58.4117809798957
733,-34.585428377741,-58.4050179212088
734,-34.5913323000754,-58.3957439877168
735,-34.5981746903784,-58.3934884989392
736,-34.5757317599261,-58.3987745954043
737,-34.5794626151779,-58.3916045573527
738,-34.5746353333384,-58.398586549503
739,-34.5729832609247,-58.3912855365147
740,-34.5911077136575,-58.3954811974076
741,-34.5957288712716,-58.4033265668488
742,-34.5961439762138,-58.4105470575263
743,-34.5924636283988,-58.4114473744147
744,-34.5978988672091,-58.4143401951195
745,-34.5877780943376,-58.3882387259398
746,-34.5848551183725,-58.4018911956784
747,-34.5958235656517,-58.4122608900842
748,-34.5927019839985,-58.3973156779798
749,-34.5883038434787,-58.4062650454716
750,-34.5929872720384,-58.4027227706041
751,-34.5770525636581,-58.3852062023774
752,-34.5941102117056,-58.3954921035973
753,-34.5755785095827,-58.4012502360935
754,-34.5970499004439,-58.4112210014553
755,-34.5855723384272,-58.3998020253369
756,-34.5926538349002,-58.3991154008745
757,-34.5858273307144,-58.3880673586632
758,-34.5838107803496,-58.3917533888913
759,-34.5986106062071,-58.3911772009373
760,-34.5876299909652,-58.3949081289437
761,-34.578615129251,-58.3911145279611
762,-34.5864475176251,-58.3913768026442
763,-34.5978648372405,-58.3889015200582
764,-34.597216444213,-58.3945022409781
765,-34.5932892857742,-58.4091854476682
766,-34.5772773616876,-58.3959251905947
767,-34.5751948530608,-58.3979543198082
768,-34.5944547581496,-58.4034890596716
769,-34.5897662396752,-58.4099928940777
770,-34.5914266286547,-58.402745946502
771,-34.5887700053826,-58.4096776010655
772,-34.5820343917555,-58.3963216863669
773,-34.5900855208965,-58.4019191490767
774,-34.5913872980786,-58.4004119956
775,-34.587055895501,-58.3910134534647
776,-34.5818444491538,-58.3960792437164
777,-34.5934670465688,-58.4090797902808
778,-34.5947526969288,-58.4098112145536
779,-34.5962172350069,-58.4141846838556
780,-34.5740091670315,-58.397401241758
781,-34.5868268596259,-58.3885572048374
782,-34.5780374911851,-58.391528357648
783,-34.5973511264728,-58.4047518284648
784,-34.5910539818537,-58.4013437268469
785,-34.5905621793762,-58.3938976287284
786,-34.576063212272,-58.3988318239634
787,-34.5971679906165,-58.4004559457329
788,-34.5753555476029,-58.3925313427536
789,-34.5831929226867,-58.392968617311
790,-34.5764988638442,-58.3983659461789
791,-34.5852326342175,-58.3977694671393
792,-34.5899487395665,-58.4080668488064
793,-34.5753163520453,-58.3905353345468
794,-34.5977861359332,-58.3921385602384
795,-34.5756721826199,-58.390305323927
796,-34.5963197781133,-58.389745889962
797,-34.5855025312518,-58.3954832787669
798,-34.5714021888318,-58.3833483234331
799,-34.5990109856716,-58.3957007230982
800,-34.5985638431169,-58.3926147975386
801,-34.5931831734678,-58.4123332577987
802,-34.5985642307143,-58.4015720788462
803,-34.5840106689831,-58.3935544745607
804,-34.5906083835912,-58.3957369935485
805,-34.5946406656887,-58.4123225287245
806,-34.5867119517059,-58.3848996071053
807,-34.5866335431035,-58.3855946007008
808,-34.5771385810124,-58.3940719776321
809,-34.5891590537305,-58.3857176014282
810,-34.5929111977621,-58.3892843883318
811,-34.5841387834591,-58.3956755777873
812,-34.5959535312264,-58.4111624421715
813,-34.5886395050499,-58.3930530072032
814,-34.5935003666998,-58.4023576626525
815,-34.5860123002443,-58.3900462767816
816,-34.595957285872,-58.3974891370163
817,-34.5773867258254,-58.3968445043253
818,-34.590435220303,-58.3992410262851
819,-34.5774724220231,-58.3943859662265
820,-34.5968798938024,-58.3961173379456
821,-34.5866052601821,-58.3913616682707
822,-34.5868465183,-58.3940986606538
823,-34.5844267458523,-58.3982360170455
824,-34.5754914021474,-58.3872370881849
825,-34.5750247470204,-58.3952621420315
826,-34.5985509964707,-58.4023139455822
827,-34.5892714896644,-58.4076413477011
828,-34.5782037063751,-58.3921410371756
829,-34.5852378253229,-58.3921781795805
830,-34.5883503622606,-58.3922756437846
831,-34.5956902048232,-58.40405527475
832,-34.5715087851722,-58.3856035657458
833,-34.5814594258204,-58.3922823958253
834,-34.5897374838535,-58.4089366747735
835,-34.5906507986171,-58.407872410101
836,-34.5896553236112,-58.393463881626
837,-34.5942246770026,-58.4043116490212
838,-34.5991268256769,-58.3872733337913
839,-34.5917084141593,-58.4114346383239
840,-34.5931462025335,-58.4122799994004
841,-34.5776221382592,-58.3977786392479
842,-34.5865594832019,-58.38803272649
843,-34.5755955884516,-58.3963698941504
844,-34.5805308617387,-58.3966343465731
845,-34.5942671231249,-58.3884398841542
846,-34.5921709586103,-58.4017127410211
847,-34.5959924117991,-58.4048781828825
848,-34.5972811201834,-58.3897909259861
849,-34.5967733071002,-58.3930606343575
850,-34.5958227827713,-58.4042647041276
851,-34.5927934859209,-58.3886671080286
852,-34.5981494236434,-58.3924072750623
853,-34.5932742952766,-58.4003677840142
854,-34.5968891903758,-58.4064730089396
855,-34.5961230615366,-58.3978230734544
856,-34.5850500083927,-58.3957105248857
857,-34.5897248006595,-58.410027079275
858,-34.5886129207372,-58.391997388569
859,-34.5913120344313,-58.400125041005
860,-34.5758394457104,-58.3921990774211
861,-34.5877164311311,-58.40346737883
862,-34.5989763360436,-58.3873682812709
863,-34.5874954081894,-58.4010359828282
864,-34.5889461172135,-58.3858170666373
865,-34.5775993477191,-58.3930450031964
866,-34.5836028761759,-58.3908813013934
867,-34.5933482858334,-58.4123828938588
868,-34.5985014942892,-58.3901844488969
869,-34.5990258796431,-58.3893391729757
870,-34.5850186136749,-58.4056589116671
871,-34.5918686576228,-58.3901100193085
872,-34.5939650140259,-58.3975793809186
873,-34.5853088255569,-58.4029551403603
874,-34.5722026804934,-58.3876384415878
875,-34.5768213879678,-58.3890137421089
876,-34.5858827497725,-58.3855838361777
877,-34.5920309630538,-58.3944641507511
878,-34.5839935252355,-58.3980729046291
879,-34.5928436414305,-58.4064284631078
880,-34.5931844916762,-58.3982318287302
881,-34.5945521139088,-58.3988787585578
882,-34.5776970915649,-58.396886029615
883,-34.5920443560805,-58.4055116785838
884,-34.5882927146806,-58.3870388729732
885,-34.5909266619245,-58.3880515053144
886,-34.5722868375308,-58.400690397296
887,-34.5750172112598,-58.3966414492005
888,-34.5964053853476,-58.3992351946822
889,-34.5940082278336,-58.3938931731725
890,-34.5782087613925,-58.3970210133573
891,-34.5990029216698,-58.3905710180758
892,-34.5910666739227,-58.4052886797277
893,-34.5875322532647,-58.3860705945233
894,-34.5982710183008,-58.3884409156011
895,-34.5934282967892,-58.3922007187153
896,-34.5751701815288,-58.4002311824561
897,-34.5908669541285,-58.3896251505926
898,-34.5721314748787,-58.3955492404251
899,-34.5768798199946,-58.3886846544066
900,-34.5944351138367,-58.4042178040646
901,-34.5833641322656,-58.3931562298087
902,-34.5907661052286,-58.389258891654
903,-34.5737259083801,-58.3847206177896
904,-34.5747504656437,-58.3891958449246
905,-34.5842365515497,-58.3899454999928
906,-34.5813553019992,-58.3918220814992
907,-34.5976564168497,-58.404919290689
908,-34.583728580601,-58.3914989704388
909,-34.5902045662436,-58.3903949994712
910,-34.5887066454614,-58.3892361975673
911,-34.592767544925,-58.4104755213751
912,-34.5822323575466,-58.3955532233361
913,-34.5714511065887,-58.3965058704985
914,-34.5976753501288,-58.3997628879895
915,-34.5840945189541,-58.397658682797
916,-34.5858516345023,-58.4033194555138
917,-34.5880022667665,-58.395568496702
918,-34.5970434152748,-58.397258522248
919,-34.5746543499488,-58.3944025208748
920,-34.5836866412941,-58.4023906754834
921,-34.589987081077,-58.3924065021309
922,-34.5725082153868,-58.394729918616
923,-34.5811183819579,-58.3911677752821
924,-34.5926092472908,-58.3877000697316
925,-34.5933892720068,-58.3945854962118
926,-34.5949649767931,-58.4047756560705
927,-34.5836794879773,-58.3919588996137
928,-34.5841559649186,-58.4060928970829
929,-34.5842672921046,-58.4056828611697
930,-34.5792182690628,-58.3968880302064
931,-34.5908606317128,-58.3895039744655
932,-34.5883513218799,-58.4023308858485
933,-34.5759682046879,-58.3892928842953
934,-34.5880378801047,-58.3950500601123
935,-34.5930687599849,-58.4095708417272
936,-34.5763533273604,-58.384733423722
937,-34.584827744055,-58.3932678209102
938,-34.5850034531769,-58.3901654973583
939,-34.5903446103707,-58.4111526888276
940,-34.5730134776366,-58.3986132423216
941,-34.5873803928281,-58.4012672436372
942,-34.5870993217372,-58.3920872606042
943,-34.5827649485869,-58.3924712823652
944,-34.5766217084152,-58.3853813158089
945,-34.5777260840431,-58.3831535443485
946,-34.5941238091093,-58.4092998760065
947,-34.5795298423569,-58.3916722119564
948,-34.5962693084816,-58.3979991130185
949,-34.5888836042645,-58.3986497066245
950,-34.5861562289657,-58.3863501900559
951,-34.5981300540549,-58.392522781981
952,-34.5932867494856,-58.391149319637
953,-34.5935886229532,-58.4006803001599
954,-34.5981461270787,-58.3941456310375
955,-34.5726531675323,-58.3980682115738
956,-34.5991796271433,-58.3941854029136
957,-34.5774769092408,-58.3889383288483
958,-34.5878068066458,-58.4012397894808
959,-34.5778624521679,-58.3895912102042
960,-34.5868729773368,-58.4010304377354
961,-34.5929931314591,-58.404431162304
962,-34.59124767587,-58.3931429300444
963,-34.5785036708925,-58.3945700435423
964,-34.5916734179491,-58.4001063977654
965,-34.5771599479744,-58.3855182814557
966,-34.5728837298695,-58.4014277438958
967,-34.5726320840912,-58.382797942343
968,-34.5779281489179,-58.3922478509291
969,-34.5777536999713,-58.3918438885044
970,-34.5911485253883,-58.3944607525265
971,-34.5864211544957,-58.3993245338921
972,-34.5771044446889,-58.3836018615618
973,-34.5739966945925,-58.3851492179601
974,-34.5781139277351,-58.3916246668872
975,-34.5899986906331,-58.4040663973948
976,-34.5863133112284,-58.4064496556972
977,-34.5837178237837,-58.3922923731235
978,-34.5923362114014,-58.3952789064739
979,-34.577539994333,-58.3917261907437
980,-34.5830918673732,-58.3974891478812
981,-34.5866869122258,-58.3964627411941
982,-34.5849260656799,-58.3942365770723
983,-34.5955890470271,-58.4072830689209
984,-34.5927349738541,-58.4059402435834
985,-34.578174933597,-58.3936352851443
986,-34.5977217205178,-58.414924132532
987,-34.5741741149554,-58.3829082543577
988,-34.590433306679,-58.3995696893939
989,-34.5771391528627,-58.3867463515757
990,-34.5797558090846,-58.3913447655096
991,-34.5923779982696,-58.396213197814
992,-34.5837992297323,-58.3925975843696
993,-34.5874039712903,-58.4042826220759
994,-34.5802986059444,-58.3937239141143
995,-34.5978415461025,-58.3881324239105
996,-34.5896611103593,-58.4002358182201
997,-34.577395798897,-58.3910950364673
998,-34.597151624898,-58.4016003343392
999,-34.5717966474521,-58.3961271419153
1000,-34.5949822806488,-58.3878236053731
1001,-34.5905122525074,-58.4081110484673
1002,-34.587351508795,-58.3997716512187
1003,-34.5845264359294,-58.405399047796
1004,-34.588317414739,-58.3949984630442
1005,-34.5992120733215,-58.39718988916
1006,-34.5914658131347,-58.4106420928101
1007,-34.5919898256717,-58.3951707942539
1008,-34.5781489275963,-58.3959487437331
1009,-34.5900705587444,-58.390454295547
1010,-34.5930623943957,-58.3990031708294
1011,-34.5984473535805,-58.3952597536808
1012,-34.5726297537693,-58.382879408765
1013,-34.5919739246193,-58.3935870396479
1014,-34.5809609071152,-58.3979725357866
1015,-34.5731251985386,-58.3988320662888
1016,-34.5861588877385,-58.3936341551849
1017,-34.5981881238916,-58.3916232797644
1018,-34.598822033981,-58.3918146981094
1019,-34.5960886414192,-58.3973366846736
1020,-34.5790926392084,-58.3937793888879
1021,-34.5939091046707,-58.4103463767623
1022,-34.5766362095545,-58.3909614205371
1023,-34.5846972225825,-58.4052212793498
1024,-34.5897484482878,-58.4048126089854
1025,-34.5771619590555,-58.3841975071283
1026,-34.5939001315799,-58.3978737095365
1027,-34.5802920065729,-58.3928183937375
1028,-34.5923034158417,-58.3947557324916
1029,-34.5836264805598,-58.3976465493906
1030,-34.5949184529302,-58.3887725147783
1031,-34.5890435212767,-58.3963619221147
1032,-34.5908670577045,-58.3932425668636
1033,-34.5759485314919,-58.396255840723
1034,-34.594851354494,-58.4134791042398
1035,-34.5783287500474,-58.3905946583355
1036,-34.5967138913703,-58.4043460854759
1037,-34.5912244179138,-58.4035446749816
1038,-34.5830864183039,-58.3958451258973
1039,-34.5950626509858,-58.3890258989541
1040,-34.5967829838038,-58.4125520030594
1041,-34.5982852916099,-58.3877621949117
1042,-34.5981879049062,-58.391834716377
1043,-34.5902153636278,-58.3965665461615
1044,-34.5824292606503,-58.3886936487362
1045,-34.5817629495798,-58.3972642567592
1046,-34.5982812318298,-58.3956164286284
1047,-34.5931633485642,-58.3912099663189
1048,-34.5989231195106,-58.397902950878
1049,-34.5974034154531,-58.4036014360778
1050,-34.5923543999086,-58.4060848025953
1051,-34.5869474036645,-58.3980099058368
1052,-34.591668694451,-58.4080346875673
1053,-34.5886624536775,-58.3924629372133
1054,-34.5773120961701,-58.3829824589358
1055,-34.5730903310283,-58.3973887696539
1056,-34.5981902930135,-58.3925153128146
1057,-34.588121975115,-58.3844288138191
1058,-34.5953713742876,-58.3924903996619
1059,-34.5967430886623,-58.3901010011109
1060,-34.5903736012868,-58.398055254851
1061,-34.579696990844,-58.397070949944
1062,-34.5949864975247,-58.4024328713658
1063,-34.5960990254361,-58.4020778770855
1064,-34.5951639538288,-58.3973862468204
1065,-34.591094796756,-58.3925073311432
1066,-34.5732079688949,-58.401026443965
1067,-34.5989204242613,-58.3990478525168
1068,-34.5840283536535,-58.404892065688
1069,-34.5939378695013,-58.4003290739702
1070,-34.5965636142784,-58.4086961678447
1071,-34.5986857274214,-58.3951770598072
1072,-34.583301166725,-58.3970772901436
1073,-34.5914922800416,-58.3906304170881
1074,-34.5949983510098,-58.4077606167462
1075,-34.5957603786537,-58.400564525589
1076,-34.5943670542791,-58.3925182682337
1077,-34.590707729825,-58.4056007704381
1078,-34.5876469573384,-58.3946144652561
1079,-34.5849362378344,-58.3894296195734
1080,-34.5769292719321,-58.3961817153783
1081,-34.5870884839425,-58.385144428217
1082,-34.582984509832,-58.3891352824059
1083,-34.5957885759598,-58.3955951445276
1084,-34.5970302281617,-58.4109563666898
1085,-34.5968019180997,-58.394194365483
1086,-34.5852100858291,-58.4056227478072
1087,-34.5922250391184,-58.4029746391724
1088,-34.5888670221653,-58.3871340657707
1089,-34.5955080762907,-58.4127397593424
1090,-34.5822877634365,-58.3954105165463
1091,-34.5847810282825,-58.4026414109716
1092,-34.58653696911,-58.3918725353005
1093,-34.5799081690975,-58.3914221232591
1094,-34.5764898054357,-58.3958446085201
1095,-34.5859047722463,-58.4063875129897
1096,-34.590513922405,-58.3916932691411
1097,-34.5887849283533,-58.3937506185878
1098,-34.5959384508679,-58.4012603197293
1099,-34.5733453910496,-58.3952448756954
1100,-34.58760401469,-58.3852313167488
1101,-34.5713863294548,-58.3882221604907
1102,-34.5726925040037,-58.3974421089507
1103,-34.59688467449,-58.4078955973342
1104,-34.5837763250317,-58.3988601674356
1105,-34.5766775485267,-58.3957605090454
1106,-34.577742295091,-58.3893425363129
1107,-34.5742031438493,-58.3843056886501
1108,-34.5929731304893,-58.3925662688247
1109,-34.5874417413504,-58.4051953083258
1110,-34.5891545529406,-58.394282041992
1111,-34.583077899373,-58.398288305005
1112,-34.5933836891702,-58.3978553040538
1113,-34.5969882426672,-58.4131860103053
1114,-34.5912114885154,-58.4014891038406
1115,-34.5944580691269,-58.4090227218262
1116,-34.5764582343475,-58.3833581112656
1117,-34.5902451618202,-58.3924519206366
1118,-34.597155362937,-58.4080465926658
1119,-34.577360321744,-58.3863143910355
1120,-34.5970044587578,-58.3887391930125
1121,-34.5915429025873,-58.4032194408826
1122,-34.5826106039705,-58.3926772088979
1123,-34.5976819293469,-58.3966395536291
1124,-34.5758114152824,-58.38764970874
1125,-34.5769469828372,-58.3893391592197
1126,-34.5940807633935,-58.4018305943015
1127,-34.5977352399363,-58.3943334728172
1128,-34.5910506604275,-58.3881485005677
1129,-34.577678566138,-58.3859245520568
1130,-34.5811296128171,-58.3963281628953
1131,-34.5868335444556,-58.3907575589186
1132,-34.5827887574737,-58.3965605721524
1133,-34.5971863207578,-58.4031599959597
1134,-34.5759828035947,-58.3987545896742
1135,-34.5973775389002,-58.402075928017
1136,-34.5908019590212,-58.3928713044864
1137,-34.5890930908729,-58.3879408196076
1138,-34.5815500420778,-58.3942166455564
1139,-34.5859937557981,-58.4004446893287
1140,-34.590389021042,-58.4006676374556
1141,-34.5966194634515,-58.3979932382812
1142,-34.5834267349674,-58.3909344849735
1143,-34.5991438612568,-58.3898635331007
1144,-34.5841749979458,-58.3879923990529
1145,-34.57757946956,-58.3945858438154
1146,-34.5747303277792,-58.3974610136562
1147,-34.5895000165489,-58.3879540566306
1148,-34.593617862391,-58.3913389194767
1149,-34.5716656071061,-58.40027394535
1150,-34.5750224765782,-58.3967758174359
1151,-34.5946652037588,-58.4135822925755
1152,-34.5902465416277,-58.4058343425954
1153,-34.5946602809503,-58.4135927685645
1154,-34.5761342849867,-58.3943618922066
1155,-34.5828624408178,-58.3890821975622
1156,-34.5856063854733,-58.387689826515
1157,-34.5924923870124,-58.4025267646322
1158,-34.5979328695521,-58.4022283559554
1159,-34.5726743747525,-58.3974168217332
1160,-34.5940388616709,-58.409010350862
1161,-34.5775931027441,-58.3855876691923
1162,-34.575333749614,-58.3946744963904
1163,-34.576407815758,-58.3864547524696
1164,-34.5990538531647,-58.3911166349351
1165,-34.5942636757736,-58.389585326444
1166,-34.5864956798159,-58.3905178330285
1167,-34.590121180648,-58.408357682889
1168,-34.5770692571411,-58.391563463814
1169,-34.5887692148708,-58.4022237997976
1170,-34.5908736459168,-58.3928091251853
1171,-34.5945364006,-58.4008943093161
1172,-34.597954318844,-58.3978453882933
1173,-34.5753902507009,-58.3961155245093
1174,-34.5849957995698,-58.3881749475937
1175,-34.5869732278837,-58.4046220210387
1176,-34.5812086566128,-58.3958550860141
1177,-34.5748264638825,-58.3952875697577
1178,-34.5915834374707,-58.3913704986738
1179,-34.5881521555142,-58.4082237915965
1180,-34.5740869331805,-58.3923165534587
1181,-34.5895208540958,-58.3880612246222
1182,-34.5901010492522,-58.3982319369602
1183,-34.5890385173432,-58.3863733406697
1184,-34.5861431623177,-58.38668716856
1185,-34.599228789226,-58.3871743727725
1186,-34.5976202710841,-58.4070400376795
1187,-34.5717586263811,-58.3980713159682
1188,-34.5779960678972,-58.3868372333122
1189,-34.5723004175093,-58.3995399632148
1190,-34.5915939844058,-58.3915669350909
1191,-34.5944965456447,-58.3959098436416
1192,-34.5916934404591,-58.396767501972
1193,-34.5785652489214,-58.3953954512186
1194,-34.5901580316209,-58.4069489146583
1195,-34.5879649584295,-58.4049880454093
1196,-34.5768197794864,-58.3972156815296
1197,-34.5861111386939,-58.4061735270195
1198,-34.5884919414752,-58.4022429249268
1199,-34.5762007389058,-58.398657383774
1200,-34.5951020224449,-58.408878625883
1201,-34.5772907279337,-58.3877843929559
1202,-34.5928073987329,-58.4093111650547
1203,-34.5905584365744,-58.3932135306154
1204,-34.5912588338206,-58.4016888008698
1205,-34.5856513743862,-58.39986794329
1206,-34.5929033368821,-58.4073132621854
1207,-34.5885106676491,-58.3850079176686
1208,-34.5855253410553,-58.4070447744921
1209,-34.5898959399774,-58.3933505570349
1210,-34.5896335808644,-58.3935359359773
1211,-34.5957190905689,-58.4012533537965
1212,-34.5952076249488,-58.3985428069968
1213,-34.5919155687409,-58.4119047665101
1214,-34.5946948554172,-58.4030997113388
1215,-34.5968594798266,-58.4036442550428
1216,-34.5931942038133,-58.3912938573054
1217,-34.5854290693414,-58.404932523225
1218,-34.5861528629815,-58.3936047002821
1219,-34.5773678773836,-58.3898552241274
1220,-34.5951541896579,-58.3929079637929
1221,-34.5862263405918,-58.4043073685726
1222,-34.591030068518,-58.3970202418597
1223,-34.597214586588,-58.4105720896005
1224,-34.593779530594,-58.4119277095259
1225,-34.5982545084224,-58.398263015888
1226,-34.5990690798567,-58.401567486678
1227,-34.5872206882472,-58.4079522669883
1228,-34.5907868183444,-58.4084003451919
1229,-34.5864984455274,-58.3916418936298
1230,-34.5736410182295,-58.4011144152438
1231,-34.5936286892438,-58.4115176468439
1232,-34.5985011116615,-58.4002678931214
1233,-34.5987261412106,-58.4029644511356
1234,-34.5768806614593,-58.3973069516139
1235,-34.5951547876493,-58.3995524420531
1236,-34.5917955124916,-58.3917741489337
1237,-34.5946841803445,-58.4045614818201
1238,-34.5900326956749,-58.3918497488906
1239,-34.5786697006338,-58.3959704645768
1240,-34.5713611865307,-58.3976053541043
1241,-34.5956263556938,-58.4078025410862
1242,-34.5958786398493,-58.3891977744739
1243,-34.5829562945531,-58.3916344756261
1244,-34.5984755405812,-58.3930714060956
1245,-34.5894383727576,-58.4043287654266
1246,-34.588011423748,-58.3973291186674
1247,-34.5866249754869,-58.3885694178256
1248,-34.5976130641949,-58.405676623406
1249,-34.5950311049101,-58.3934965553163
1250,-34.5964880661419,-58.4092877553453
1251,-34.5842965423154,-58.3892066702208
1252,-34.576123177987,-58.3869707113716
1253,-34.5867143475053,-58.3954541099294
1254,-34.5924660144342,-58.4023612482046
1255,-34.5962970141595,-58.4060088419505
1256,-34.572985723691,-58.3918087629274
1257,-34.5927204963551,-58.3954942427669
1258,-34.5733829166641,-58.3979239053352
1259,-34.5775268279831,-58.3942447805416
1260,-34.5973719137279,-58.4098458551385
1261,-34.5780978108915,-58.3943887843811
1262,-34.5853902863722,-58.399176001025
1263,-34.5973295609709,-58.388750977283
1264,-34.5956640826028,-58.4110568401384
1265,-34.5843989639293,-58.4064623842941
1266,-34.5910600279846,-58.3892353703642
1267,-34.5991317387704,-58.3870083396878
1268,-34.57536494142,-58.4015707007553
1269,-34.5876872149898,-58.3931027025282
1270,-34.5846013078658,-58.3929231077672
1271,-34.5920958988502,-58.4068411374754
1272,-34.5774137781659,-58.38288319869
1273,-34.5867596922763,-58.4049680179412
1274,-34.577529282614,-58.3980153663327
1275,-34.5882753063928,-58.4038029930156
1276,-34.5928682231318,-58.4039114563054
1277,-34.5958789237592,-58.4149887906332
1278,-34.5855409857124,-58.4056323713779
1279,-34.5944407268181,-58.4013086407345
1280,-34.5916740379942,-58.3996324866782
1281,-34.5915159231142,-58.4036030403012
1282,-34.5760685497051,-58.3965751733896
1283,-34.5963479997094,-58.4105026462386
1284,-34.5896159887626,-58.3924252600462
1285,-34.5917731305917,-58.4111708531793
1286,-34.5774809790593,-58.3859448879624
1287,-34.5863469411275,-58.4032239858884
1288,-34.5955873390267,-58.3957501125676
1289,-34.5841021318968,-58.3884165458392
1290,-34.5714495060936,-58.3988130589346
1291,-34.5857443725028,-58.4025678553877
1292,-34.5963734799885,-58.3947097018714
1293,-34.589497910984,-58.3886237285011
1294,-34.5951186380294,-58.3956599426795
1295,-34.5973837826416,-58.4153315753638
1296,-34.5825792573687,-58.3905481910135
1297,-34.5929403850095,-58.4051681847028
1298,-34.581179335946,-58.3934915040501
1299,-34.577765956504,-58.3950994689598
1300,-34.5990501685919,-58.4001218706221
1301,-34.5967764268989,-58.4106076588092
1302,-34.5731572696869,-58.4015171619536
1303,-34.5738060784649,-58.3914647923839
1304,-34.5908653280496,-58.4009599977294
1305,-34.5736270202555,-58.3933479247862
1306,-34.5976177606273,-58.3945704629492
1307,-34.5981986855694,-58.3911064540994
1308,-34.5872180819064,-58.4057877599962
1309,-34.5880758315985,-58.3923974941602
1310,-34.5905473338664,-58.3907333108515
1311,-34.5763244933425,-58.386433638535
1312,-34.585686242406,-58.4061347455172
1313,-34.5839053126818,-58.4020847443821
1314,-34.5941320708546,-58.4117912867277
1315,-34.5721517039599,-58.3930086615608
1316,-34.5939246843073,-58.402096044146
1317,-34.5909363140366,-58.4061214325183
1318,-34.5778309304509,-58.3883200559425
1319,-34.5870830072296,-58.3855668373827
1320,-34.5858347370452,-58.4065835328944
1321,-34.593037176437,-58.4007753536001
1322,-34.5784394498211,-58.3949578527133
1323,-34.5957582097084,-58.4101080266255
1324,-34.5952883604403,-58.3978445326104
1325,-34.5845548340564,-58.3908189880123
1326,-34.5889507658631,-58.3929836074697
1327,-34.5962923891762,-58.3931775596083
1328,-34.5888872070102,-58.388286001501
1329,-34.585985187925,-58.3864976809675
1330,-34.5947187270715,-58.4091892583824
1331,-34.5928819187493,-58.4045888246188
1332,-34.5977662634543,-58.3916104005486
1333,-34.5943797718599,-58.4024771646527
1334,-34.5931306359198,-58.3891282974877
1335,-34.5933622735084,-58.4056306970321
1336,-34.5938791271146,-58.410584112458
1337,-34.597093205382,-58.414899489204
1338,-34.5940542325926,-58.396050173586
1339,-34.588348855733,-58.4070752131931
1340,-34.5858552457153,-58.386897246556
1341,-34.5877951314375,-58.4047076815
1342,-34.5740649551789,-58.3994699477511
1343,-34.5900876617129,-58.4022512821829
1344,-34.5897382790479,-58.3984409912719
1345,-34.5927817374534,-58.3935955684312
1346,-34.5880225696154,-58.407487961803
1347,-34.5947812087776,-58.4020295637408
1348,-34.5910237699767,-58.3891344154237
1349,-34.578208969204,-58.3903102853028
1350,-34.5922837020478,-58.4004800955762
1351,-34.5935726073493,-58.3931235950745
1352,-34.5937669576886,-58.3931101730551
1353,-34.5837051361724,-58.3875336346408
1354,-34.594739886831,-58.3879898995005
1355,-34.5971250663955,-58.3984297100083
1356,-34.5917894449286,-58.4122706808932
1357,-34.5846814141031,-58.4066576616662
1358,-34.5863443226671,-58.4076332369993
1359,-34.5867572681144,-58.4025304873534
1360,-34.5889274631514,-58.4034637396664
1361,-34.5927946891214,-58.3893352621579
1362,-34.5744661623258,-58.3941337225962
1363,-34.5875540071047,-58.4000616345051
1364,-34.5873692463967,-58.4046517506636
1365,-34.5779133025693,-58.3840474730272
1366,-34.5864829400729,-58.3928262371518
1367,-34.5913045006825,-58.4014514879769
1368,-34.5912423765431,-58.4055601065905
1369,-34.5844502329896,-58.4029328717448
1370,-34.5935588262547,-58.4027655845871
1371,-34.5789632525161,-58.3928491589594
1372,-34.5788781348784,-58.3915435114967
1373,-34.5755256246975,-58.3934488030502
1374,-34.5741001885841,-58.3828120667618
1375,-34.588480680573,-58.3926560362989
1376,-34.57643564057,-58.3871028121179
1377,-34.5888217277862,-58.3893862788544
1378,-34.5962421397342,-58.402121887839
1379,-34.5988303311777,-58.3978899790351
1380,-34.5730656476604,-58.3923461920462
1381,-34.5744657331562,-58.3900843803921
1382,-34.5908524263334,-58.40793568682
1383,-34.5844838639564,-58.4000844473446
1384,-34.594026803318,-58.4080243084057
1385,-34.5885994142483,-58.394165728047
1386,-34.5910882993928,-58.409467115629
1387,-34.5969540102403,-58.4000567554348
1388,-34.5884856838527,-58.3867726845849
1389,-34.5877564467263,-58.4084721653804
1390,-34.59435296914,-58.3922883482792
1391,-34.5829365948416,-58.3888146704385
1392,-34.5988166442203,-58.3919441254161
1393,-34.5880593719974,-58.3949229277188
1394,-34.5992350342526,-58.395405771537
1395,-34.5941732735141,-58.4006569178184
1396,-34.5722754102294,-58.3996533354175
1397,-34.5805605216539,-58.3916019161183
1398,-34.5724284130942,-58.3922748133386
1399,-34.5826542861341,-58.3962429318301
1400,-34.5728167936314,-58.3835459625203
1401,-34.5909432501001,-58.4067570470284
1402,-34.5945347725954,-58.3986464031706
1403,-34.5921194609453,-58.404659895536
1404,-34.581525206071,-58.3960072688488
1405,-34.5842004500317,-58.3958533455259
1406,-34.5724952373282,-58.3842903646774
1407,-34.5853872772351,-58.3885791801119
1408,-34.5934281348732,-58.3900391655419
1409,-34.5913904117903,-58.4109145118319
1410,-34.5736773897469,-58.3971318597534
1411,-34.5970116740583,-58.3898811949219
1412,-34.5872867362716,-58.3907946641874
1413,-34.5933755545401,-58.4053095625797
1414,-34.5821086366267,-58.3909926548219
1415,-34.5912712522728,-58.3998411713393
1416,-34.5797697399213,-58.3933390016
1417,-34.5880138332276,-58.4080489516134
1418,-34.5935434617635,-58.4114065299404
1419,-34.591071003454,-58.3998026209349
1420,-34.5847054731244,-58.393678468153
1421,-34.5954817961381,-58.4113024787249
1422,-34.5840548200309,-58.4018720208141
1423,-34.5949422508092,-58.4000727638893
1424,-34.5948131097981,-58.3879285906131
1425,-34.5897681062799,-58.3934111965871
1426,-34.5944840815176,-58.4061160463474
1427,-34.5872609844839,-58.3857084007941
1428,-34.5886481665551,-58.4072795588494
1429,-34.5853320823439,-58.4030982933532
1430,-34.5903508230001,-58.4040160287741
1431,-34.5955359726102,-58.3881610941248
1432,-34.5889635762822,-58.4002655026969
1433,-34.5981709324261,-58.396936225474
1434,-34.5852610374332,-58.3914207832057
1435,-34.5933650016698,-58.3976296597751
1436,-34.594522533391,-58.3917324017279
1437,-34.5909247621077,-58.3935166914316
1438,-34.5893249716496,-58.4081403581179
1439,-34.595092576485,-58.40786218426
1440,-34.5937939956827,-58.4002841936536
1441,-34.5884922164843,-58.4004590119079
1442,-34.5826699583789,-58.3929398979481
1443,-34.5925217247319,-58.3906913638704
1444,-34.5718511780111,-58.3955802644234
1445,-34.5899167416043,-58.3939580743359
1446,-34.5773723544293,-58.3923961538643
1447,-34.5925238249846,-58.4024127088697
1448,-34.5784223236656,-58.3965896481574
1449,-34.5875856852962,-58.3873379828434
1450,-34.598550629223,-58.3963216801342
1451,-34.5825877170848,-58.3931449959941
1452,-34.5877749089205,-58.4009745831732
1453,-34.5985179365733,-58.3942314503058
1454,-34.5953493265457,-58.3949112078203
1455,-34.5720822672802,-58.3875364021496
1456,-34.5954418195079,-58.4010347928371
1457,-34.5977687611789,-58.3967651387928
1458,-34.5734433408901,-58.3994247829548
1459,-34.577930002007,-58.3973577493286
1460,-34.5873960974282,-58.4037463129248
1461,-34.5970797510928,-58.4036955065155
1462,-34.5966983444086,-58.4079138244602
1463,-34.5885297423526,-58.3883024138477
1464,-34.5905280646689,-58.3950740225761
1465,-34.5950036694844,-58.4124200393639
1466,-34.5944236413099,-58.3873287072643
1467,-34.5748683100429,-58.3937133364034
1468,-34.5920666104221,-58.4096934120529
1469,-34.5738158923503,-58.3855432856907
1470,-34.592618652204,-58.4111946808156
1471,-34.5969281094141,-58.4012153300691
1472,-34.5736643643695,-58.4013317504087
1473,-34.574842287508,-58.3957542930653
1474,-34.5821079209232,-58.3940655426086
1475,-34.5865317467219,-58.4027660835254
1476,-34.5930650068983,-58.3991019705647
1477,-34.5830307331462,-58.3990294047658
1478,-34.5852361109958,-58.3941368652802
1479,-34.5887225914328,-58.393950729272
1480,-34.5722469389777,-58.3963937743154
1481,-34.5987681943543,-58.3983452394076
1482,-34.582232427653,-58.3932426449264
1483,-34.590351027688,-58.4083362205203
1484,-34.5898011258038,-58.4039152759776
1485,-34.5797143241473,-58.3966861342497
1486,-34.5733411147317,-58.3983482937269
1487,-34.5946100211212,-58.3957568748135
1488,-34.5757648413246,-58.3919481935087
1489,-34.5825978745202,-58.3936663091127
1490,-34.5914257175503,-58.4081441157071
1491,-34.5740770736132,-58.4005405946862
1492,-34.5975248217217,-58.4080248206756
1493,-34.5932307785587,-58.4114484390149
1494,-34.5751549960545,-58.4008192227289
1495,-34.5722794369393,-58.3849689747106
1496,-34.5949745137951,-58.3922845189264
1497,-34.5788835850722,-58.3915807380893
1498,-34.5886290561548,-58.4051809067916
1499,-34.591644186834,-58.3973611529128
1500,-34.5819378851256,-58.3946410468783
1501,-34.5851275156009,-58.3898527346948
1502,-34.5945461323005,-58.4116849572917
1503,-34.5880044058848,-58.3922748033042
1504,-34.59252493764,-58.39493538732
1505,-34.597329182898,-58.3929287501158
1506,-34.5902263543752,-58.3873792892604
1507,-34.5882427279355,-58.401689847201
1508,-34.5881615658363,-58.3868723566284
1509,-34.5727791799948,-58.3944899835236
1510,-34.5987661042323,-58.3981712012331
1511,-34.5849229730904,-58.393779382297
1512,-34.5762391427109,-58.3883054254219
1513,-34.5889118418704,-58.4009281564663
1514,-34.5887643696736,-58.3866158859368
1515,-34.5964051610204,-58.3957435857045
1516,-34.585929263943,-58.397221291667
1517,-34.5833270169569,-58.3921154144236
1518,-34.5854759896529,-58.3989980472276
1519,-34.574053925819,-58.3974750611738
1520,-34.5876232362594,-58.3893879875443
1521,-34.5922482400382,-58.4091964258722
1522,-34.5847483576964,-58.3879500199019
1523,-34.5921829407994,-58.4028941343456
1524,-34.5845743349954,-58.3970819126294
1525,-34.5944632795607,-58.4092439376166
1526,-34.594695171448,-58.3980915610758
1527,-34.575551337389,-58.399615838615
1528,-34.5880146739893,-58.3921132561283
1529,-34.594072316723,-58.4059927828765
1530,-34.5913847328835,-58.4117646116048
1531,-34.5817238492355,-58.3934461682944
1532,-34.5827816158713,-58.3912628724257
1533,-34.5936200418049,-58.4074681975026
1534,-34.578900498203,-58.3943954674483
1535,-34.5729141906059,-58.3997861866619
1536,-34.5905793532313,-58.4035288120874
1537,-34.5924008648577,-58.3993784113969
1538,-34.5931293200164,-58.4006427527648
1539,-34.5832472039051,-58.3882343318699
1540,-34.5916027248343,-58.3900284522834
1541,-34.5751812550773,-58.3951126467591
1542,-34.577435017031,-58.3836485187839
1543,-34.5952825469703,-58.4040635217042
1544,-34.5739720360171,-58.3838376920502
1545,-34.5953295641947,-58.407051212285
1546,-34.5745192181342,-58.4004482028854
1547,-34.5977229352764,-58.3917362113063
1548,-34.5940263019474,-58.4142798158164
1549,-34.5881081850801,-58.4016745587235
1550,-34.5783001832276,-58.3951258899969
1551,-34.5883623618732,-58.4082998224658
1552,-34.588295823332,-58.4035056370987
1553,-34.5715670930309,-58.3966140404858
1554,-34.5835114260246,-58.3889740875753
1555,-34.5789219805862,-58.3943610646856
1556,-34.5929800895287,-58.4074583066787
1557,-34.5739830796597,-58.3961255362627
1558,-34.5852662451838,-58.3904443026763
1559,-34.5749150885142,-58.3950188485242
1560,-34.5769971564496,-58.3887629610402
1561,-34.5842737086065,-58.3910354569862
1562,-34.5887886044251,-58.3962983182583
1563,-34.5745975152216,-58.3979597587306
1564,-34.5836195502934,-58.4017595655011
1565,-34.5859340587356,-58.406711136753
1566,-34.5956370789508,-58.4073687041207
1567,-34.592536453657,-58.3937684171643
1568,-34.5883426119087,-58.404697104685
1569,-34.5968800306906,-58.4044687461215
1570,-34.5888706839074,-58.4085450945277
1571,-34.5773709591962,-58.3843014938396
1572,-34.5963259720225,-58.4040422505841
1573,-34.5992139314985,-58.3957940910298
1574,-34.5765834887017,-58.382882012517
1575,-34.571962396067,-58.3964551040901
1576,-34.5963848418548,-58.3895061070688
1577,-34.5966970564335,-58.3950584969521
1578,-34.5898325055283,-58.4088617979331
1579,-34.5987701520473,-58.3916966032933
1580,-34.577015609451,-58.3979264935406
1581,-34.5726792001856,-58.3930038942892
1582,-34.5946413033684,-58.4053002129463
1583,-34.5844850593948,-58.3868243064429
1584,-34.5893701471636,-58.3983403783349
1585,-34.5894997126644,-58.391266923942
1586,-34.5967997957017,-58.3872575748027
1587,-34.5840205559418,-58.387620426181
1588,-34.584925326051,-58.3942896662612
1589,-34.5908244000115,-58.3968284802922
1590,-34.5938372213825,-58.3906556658535
1591,-34.5770692056182,-58.3881179959676
1592,-34.5955125458049,-58.4041523028926
1593,-34.5895461012349,-58.4017496592514
1594,-34.5928978759337,-58.3957810719305
1595,-34.5847834597056,-58.3921265379225
1596,-34.5796641625986,-58.3940504272698
1597,-34.588761001381,-58.4071828465526
1598,-34.5860485741477,-58.3891022799211
1599,-34.5987588327492,-58.3994821662164
1600,-34.5723651498652,-58.3856613768525
1601,-34.5894460532232,-58.405049980355
1602,-34.5972414644623,-58.3976740058037
1603,-34.5886676825768,-58.3886582938275
1604,-34.57428449876,-58.3904839409226
1605,-34.5944913257499,-58.4036730356784
1606,-34.5718060468507,-58.3968279189158
1607,-34.5771092707152,-58.3941448644791
1608,-34.5899302871098,-58.389026544187
1609,-34.5928029073599,-58.3927518888364
1610,-34.5969553815155,-58.3986519310029
1611,-34.5962996264855,-58.4131285198597
1612,-34.5720819241569,-58.3874445007472
1613,-34.5753397476801,-58.3968878423743
1614,-34.596477068033,-58.4022533495947
1615,-34.5918042469824,-58.3913087268313
1616,-34.5843167507222,-58.3921278783052
1617,-34.5923000927346,-58.4083753468407
1618,-34.5861360419498,-58.3864828534688
1619,-34.5937086753573,-58.3900039378582
1620,-34.5942860251383,-58.4110607303203
1621,-34.5977209090438,-58.4099012798007
1622,-34.5872468514497,-58.3976771281186
1623,-34.5951416864993,-58.4081323949409
1624,-34.5898727479089,-58.409858817779
1625,-34.5914439817633,-58.390885379582
1626,-34.5876064045756,-58.3979217894676
1627,-34.58695310101,-58.3993036524788
1628,-34.5811611191364,-58.3970423686674
1629,-34.573848917481,-58.3842194657061
1630,-34.5934800844254,-58.405866382238
1631,-34.5963786666566,-58.3912405157934
1632,-34.5973800865847,-58.3964886586216
1633,-34.5937079829042,-58.3902518581703
1634,-34.5935099306212,-58.413050139222
1635,-34.5987400464901,-58.3887088866132
1636,-34.5919608987303,-58.3977658792115
1637,-34.5729118920198,-58.3858477711562
1638,-34.5976605478945,-58.3999703028254
1639,-34.5965091077414,-58.4040162201561
1640,-34.588652872949,-58.384922474228
1641,-34.5944677190171,-58.4082889957168
1642,-34.5732824502105,-58.3951150471986
1643,-34.5929235661337,-58.4016312107079
1644,-34.5756227453624,-58.3895554058989
1645,-34.5760899297633,-58.3899191386883
1646,-34.5931328150454,-58.3917112594083
1647,-34.5964828993105,-58.3935401535617
1648,-34.5908164143781,-58.4114580728991
1649,-34.5735649647939,-58.3858283121745
1650,-34.5872295047646,-58.4042642933703
1651,-34.5886163017498,-58.3873403919288
1652,-34.5879927499265,-58.3995868378437
1653,-34.5907011678999,-58.4080547238968
1654,-34.592112303777,-58.3997810005324
1655,-34.595217311269,-58.3951598307945
1656,-34.5816097275319,-58.393786685697
1657,-34.5729714168206,-58.3985213102456
1658,-34.5920007292349,-58.4121057180716
1659,-34.5968093336962,-58.4152448978891
1660,-34.5741393746547,-58.3940366864804
1661,-34.583272689868,-58.3923589301129
1662,-34.5925497787577,-58.3988060104611
1663,-34.5930310971948,-58.3973770406099
1664,-34.5942800372758,-58.4058118973872
1665,-34.5864457918844,-58.390701657512
1666,-34.5899603766813,-58.4039154928274
1667,-34.5920372645517,-58.3953084259282
1668,-34.5854440134861,-58.3919335350582
1669,-34.5909378183604,-58.4085843994277
1670,-34.5937810382743,-58.4046496970349
1671,-34.5718019883609,-58.3972337758449
1672,-34.5932673694532,-58.4002476773404
1673,-34.5920273569417,-58.4070742724179
1674,-34.5884019277092,-58.4045311764108
1675,-34.5875568492775,-58.394446617205
1676,-34.5901763260966,-58.3973912922572
1677,-34.5759126029954,-58.3948276352856
1678,-34.590917540479,-58.4014479443125
1679,-34.5720422621474,-58.3972729189683
1680,-34.5961462569381,-58.3932920528115
1681,-34.5934860700414,-58.4124972242982
1682,-34.5988214121671,-58.3964888234579
1683,-34.5914347077411,-58.4054203393226
1684,-34.594313654055,-58.395283549614
1685,-34.5952990899606,-58.403851882646
1686,-34.5973406675879,-58.4011552300359
1687,-34.5837699092753,-58.3900627800226
1688,-34.5713849526901,-58.3859536224197
1689,-34.5856096655565,-58.4008388637573
1690,-34.5974409274921,-58.3917030722345
1691,-34.5915317082277,-58.4011132504414
1692,-34.5955793327126,-58.3982651983451
1693,-34.5762233016468,-58.3890036354152
1694,-34.5898420438867,-58.3950621868358
1695,-34.5829818037523,-58.3917100740787
1696,-34.5927384861164,-58.4130570751983
1697,-34.5937447268603,-58.3980004121406
1698,-34.5761955630392,-58.3991456622872
1699,-34.5980195824431,-58.4062486902367
1700,-34.5731450840998,-58.3858664276046
1701,-34.576926349999,-58.395844742154
1702,-34.5760012103393,-58.3965840677315
1703,-34.5755101296014,-58.3977645450874
1704,-34.5931265965531,-58.412957444221
1705,-34.587533955463,-58.3954284488393
1706,-34.5977931741092,-58.4020881842924
1707,-34.5931927800736,-58.3889317253098
1708,-34.593833019886,-58.3905833839572
1709,-34.5885049975939,-58.3943467149745
1710,-34.5939548199562,-58.3903549568098
1711,-34.5746139711703,-58.3984271176421
1712,-34.5969089857386,-58.3949601131698
1713,-34.5917432040229,-58.3950850359047
1714,-34.5906845701701,-58.3953489880753
1715,-34.5842417165522,-58.389157351219
1716,-34.5881184014791,-58.3844239609497
1717,-34.5761067063266,-58.3864374373118
1718,-34.577735558567,-58.395739511712
1719,-34.5919076804502,-58.4034804991742
1720,-34.5951511115943,-58.3968816233462
1721,-34.5919164117861,-58.4101950055104
1722,-34.5785520659866,-58.3964398981689
1723,-34.5929047346752,-58.4132115100144
1724,-34.5907109821519,-58.4054908297177
1725,-34.5762689211078,-58.3840769827834
1726,-34.5852465212613,-58.3987510814902
1727,-34.5840334415813,-58.3918827259249
1728,-34.5914921701116,-58.3911150524151
1729,-34.5937699584344,-58.3973312215744
1730,-34.5898206445041,-58.3912135200527
1731,-34.5976282921485,-58.4136682000074
1732,-34.5954397068762,-58.4119712958032
1733,-34.5912395789228,-58.3882689942607
1734,-34.5857559614787,-58.4031008532193
1735,-34.5989949641428,-58.3887470734631
1736,-34.5959157465176,-58.4007595063036
1737,-34.5937063548374,-58.408525878518
1738,-34.5837386729394,-58.396135705985
1739,-34.5880763570387,-58.407699584896
1740,-34.5935095223518,-58.3921522770247
1741,-34.5884274448434,-58.4069703811742
1742,-34.5978281966222,-58.4057819355943
1743,-34.5934712791924,-58.4015052896897
1744,-34.572084826474,-58.3958772257871
1745,-34.5870358819446,-58.4004646223382
1746,-34.5764375513347,-58.3924220029393
1747,-34.5956201789239,-58.3996331118386
1748,-34.5770541537912,-58.3919162431661
1749,-34.5714453110058,-58.3949945556361
1750,-34.5760060870806,-58.3874519169171
1751,-34.5891507955794,-58.408603031581
1752,-34.575595349822,-58.3887938304391
1753,-34.5859882545615,-58.402471364848
1754,-34.5807189817466,-58.3967493671643
1755,-34.576373156674,-58.3934765043822
1756,-34.5984724754044,-58.3965211185761
1757,-34.5861068329318,-58.3967846155265
1758,-34.5952715291552,-58.3920350134791
1759,-34.5906125502559,-58.3879146380221
1760,-34.5847627879683,-58.403696119162
1761,-34.5722624233849,-58.3962985678743
1762,-34.5771691680404,-58.3843692106846
1763,-34.5937298053245,-58.4135154603635
1764,-34.5898297427967,-58.398116114738
1765,-34.5846869579947,-58.3933875804372
1766,-34.5861665999934,-58.3907144795606
1767,-34.5943270301881,-58.4061615959056
1768,-34.5894846118517,-58.3867555696588
1769,-34.5743668827713,-58.3894923465714
1770,-34.5908996512101,-58.4027755749936
1771,-34.5884020301501,-58.4039974181483
1772,-34.5847380816873,-58.3894662715006
1773,-34.5933216552941,-58.4035919523326
1774,-34.5769243189116,-58.3962511818637
1775,-34.5768438712747,-58.3847071297724
1776,-34.5868042942308,-58.388033319262
1777,-34.5916313053455,-58.3929204310134
1778,-34.5947829002084,-58.3956541780609
1779,-34.5865580980924,-58.39208139613
1780,-34.5891817598419,-58.3859432418607
1781,-34.5763044971665,-58.3978452199448
1782,-34.586826211698,-58.4074846358031
1783,-34.5861782952543,-58.4019743267223
1784,-34.5717903445411,-58.3859950969429
1785,-34.5941960552278,-58.4003449110042
1786,-34.5944241408548,-58.4041450806221
1787,-34.592080890068,-58.3928796907717
1788,-34.5984503304323,-58.3971945490198
1789,-34.5939179739425,-58.3908633040007
1790,-34.5777846922558,-58.3875091007862
1791,-34.5866468756527,-58.4031872796359
1792,-34.5936170863775,-58.4040537667176
1793,-34.5790932847297,-58.3948330003754
1794,-34.5738718155044,-58.4022353563168
1795,-34.5746586365659,-58.3943780444541
1796,-34.5947166699639,-58.3996643499095
1797,-34.5864789016649,-58.3861102036996
1798,-34.5862807892306,-58.3938659554065
1799,-34.5721974863356,-58.3882077691956
1800,-34.5883216380919,-58.400753940516
1801,-34.5764051224935,-58.3921916611825
1802,-34.5760155610535,-58.3975871224443
1803,-34.5937589245431,-58.3999441248395
1804,-34.5850052948444,-58.4059062129923
1805,-34.5929922237667,-58.4113462541286
1806,-34.5913564928934,-58.4088512651744
1807,-34.5855695922062,-58.3938442620812
1808,-34.5919394736815,-58.400228290747
1809,-34.5868522272902,-58.3882994301478
1810,-34.5856269736064,-58.4008022561781
1811,-34.5891019322931,-58.40558956383
1812,-34.5730417180166,-58.396165554651
1813,-34.5958494651393,-58.3973305784949
1814,-34.5926666461524,-58.4098499020383
1815,-34.5896310554284,-58.4010575507667
1816,-34.5961620525456,-58.4066696937847
1817,-34.5832552351573,-58.3874842578841
1818,-34.5885815458831,-58.4095957239066
1819,-34.5927920417584,-58.4101310961494
1820,-34.5874442232329,-58.3991717328224
1821,-34.5880791706061,-58.3888826621517
1822,-34.5902853908531,-58.4108059521939
1823,-34.5816631231225,-58.3915665307531
1824,-34.5942751382089,-58.391533185413
1825,-34.5960041465631,-58.3926436547248
1826,-34.5952622871503,-58.3894508942054
1827,-34.5732594459031,-58.3981727986058
1828,-34.5800548588707,-58.3926504088105
1829,-34.5890184379389,-58.3888805980885
1830,-34.5919969044811,-58.3954057267832
1831,-34.5866769678742,-58.4081676999264
1832,-34.5792268430148,-58.3909378877823
1833,-34.5870076935949,-58.3869484658595
1834,-34.58576233165,-58.3992812825897
1835,-34.593529175543,-58.4077519420027
1836,-34.5718538171902,-58.3980756766884
1837,-34.5740330137188,-58.3904414445805
1838,-34.5758273877691,-58.3992471804677
1839,-34.5727198000035,-58.3866591112042
1840,-34.5932365457017,-58.4056251432208
1841,-34.5868786083977,-58.4073703779005
1842,-34.5788316122613,-58.3905464504588
1843,-34.5963820442475,-58.3911086151221
1844,-34.5812082313025,-58.3947713394285
1845,-34.57791797366,-58.3919903227252
1846,-34.5882821451107,-58.3975299400473
1847,-34.5797837045005,-58.3958428303851
1848,-34.5818264801463,-58.3957854522397
1849,-34.5860352610228,-58.3875944080089
1850,-34.5940652778895,-58.4032523027562
1851,-34.573894564727,-58.3911314414671
1852,-34.5877461639483,-58.395145947431
1853,-34.5974107431629,-58.3876198195868
1854,-34.5983615241809,-58.3960881052624
1855,-34.5754556249539,-58.3878462363599
1856,-34.5989326092826,-58.3988659222298
1857,-34.5979743913692,-58.4025720661413
1858,-34.5765101060143,-58.3878603534801
1859,-34.5951437881258,-58.3957291557664
1860,-34.5955818956271,-58.4146912764197
1861,-34.5825923546018,-58.3921386987417
1862,-34.5737121794778,-58.3951145588325
1863,-34.5926985307115,-58.3922703819086
1864,-34.5880547291746,-58.3897415651019
1865,-34.5870459618051,-58.4011280382763
1866,-34.592568110768,-58.3985396742383
1867,-34.5825010049286,-58.3965311743271
1868,-34.5844741074909,-58.4013756286642
1869,-34.573185907057,-58.3997576036844
1870,-34.5728796186762,-58.3831007624977
1871,-34.5847639533711,-58.3864792642181
1872,-34.5971057649803,-58.4125690316614
1873,-34.5909264808967,-58.3931744207831
1874,-34.5893989640112,-58.3864649454545
1875,-34.5977385931829,-58.3918451617859
1876,-34.5737234686087,-58.3910015429787
1877,-34.5789372419909,-58.3935286271688
1878,-34.5956452292808,-58.3903847277795
1879,-34.5742562523462,-58.3916380328034
1880,-34.58517713338,-58.3881160700185
1881,-34.595573112745,-58.3915981266601
1882,-34.5958272878506,-58.414557499523
1883,-34.5877459028185,-58.3902152890318
1884,-34.5753062552669,-58.3963747333688
1885,-34.5861609037862,-58.4038001797613
1886,-34.5897943293995,-58.4008471591486
1887,-34.5770333219874,-58.3968042333953
1888,-34.5719316077375,-58.4004478010441
1889,-34.5986818623313,-58.3971648761726
1890,-34.5858637701453,-58.4008631431263
1891,-34.5938500189334,-58.3919874223851
1892,-34.5858828191007,-58.3885261350331
1893,-34.5908445928276,-58.4066228059897
1894,-34.5850717813204,-58.3964608911067
1895,-34.5747620141206,-58.3922260869233
1896,-34.5775513125461,-58.3970070207403
1897,-34.5749869498363,-58.3891161745651
1898,-34.5905610145759,-58.3964454712344
1899,-34.5899262316179,-58.409608265281
1900,-34.5917453717591,-58.4052023517847
1901,-34.5926930787342,-58.3989582416158
1902,-34.5906331155525,-58.4036389264977
1903,-34.5838280442825,-58.3878714759918
1904,-34.589326958305,-58.3929603466715
1905,-34.5987123114202,-58.3882640132642
1906,-34.5751352926939,-58.400535613035
1907,-34.57890241368,-58.3909812083729
1908,-34.5870219437571,-58.4074124955869
1909,-34.5972477047229,-58.4083269703854
1910,-34.5778616829117,-58.3972290826942
1911,-34.590017407291,-58.4040013432245
1912,-34.5988656462814,-58.3923123248536
1913,-34.5847326897001,-58.3997879961295
1914,-34.5779502080518,-58.3968933627874
1915,-34.5940171947383,-58.3977833839817
1916,-34.590714875511,-58.4031539966671
1917,-34.5983883088257,-58.3970144339287
1918,-34.5767109567865,-58.3843950706263
1919,-34.5733749792925,-58.3846364180032
1920,-34.5885149361468,-58.4092351080089
1921,-34.5750036152882,-58.3829540052234
1922,-34.5988605377128,-58.3896789241907
1923,-34.5931427081861,-58.4023823995483
1924,-34.5735133798411,-58.3989889013837
1925,-34.5805762312472,-58.3946523795855
1926,-34.5859271210145,-58.388252687589
1927,-34.5946484672723,-58.3999688283881
1928,-34.5957874856303,-58.3984643507635
1929,-34.5911486196036,-58.4008071282025
1930,-34.5949747367878,-58.3990426554293
1931,-34.591471559108,-58.4089286603349
1932,-34.5968198268106,-58.3937569744722
1933,-34.5968311367697,-58.4048973593113
1934,-34.5988184188339,-58.3913678472539
1935,-34.5944688251464,-58.4059061296701
1936,-34.5913685504738,-58.3941426481992
1937,-34.5957619893655,-58.4027596100055
1938,-34.584997427549,-58.3975856247378
1939,-34.5943868378743,-58.3903068848029
1940,-34.5968139664721,-58.3964519239095
1941,-34.5898284214782,-58.4005239227514
1942,-34.5972784483374,-58.3883616357443
1943,-34.5940851965029,-58.3992667469907
1944,-34.5811698944915,-58.3959896860869
1945,-34.5934204285753,-58.3962516557122
1946,-34.5812087432815,-58.39255021276
1947,-34.5773149451077,-58.3902305568577
1948,-34.5769827048147,-58.3860309289379
1949,-34.5733897440507,-58.3856856026551
1950,-34.5828139255166,-58.3985452049723
1951,-34.596254498694,-58.4099074745601
1952,-34.5758408337278,-58.3932223354328
1953,-34.5789251744213,-58.3938991710268
1954,-34.5739126672419,-58.3941771747821
1955,-34.5987855618166,-58.3971697354769
1956,-34.5929553712694,-58.3890020765923
1957,-34.5726786809141,-58.3942006289351
1958,-34.5790857859789,-58.3921728396413
1959,-34.5912735290306,-58.3902578376031
1960,-34.5868214611853,-58.3973705624333
1961,-34.5784337455981,-58.3945110782129
1962,-34.5960243334689,-58.3951009806869
1963,-34.5972126010966,-58.4098809326878
1964,-34.571427882773,-58.3827070857032
1965,-34.5928206047194,-58.4128792036695
1966,-34.5943866293665,-58.3905476547853
1967,-34.5943630433011,-58.3939269597969
1968,-34.5914536880604,-58.3920067268112
1969,-34.5920854421501,-58.3904583148398
1970,-34.5908772014385,-58.3875695747453
1971,-34.5986086612735,-58.391691349354
1972,-34.5900256191565,-58.3989336163089
1973,-34.5909009924339,-58.3874493899387
1974,-34.5929155499079,-58.3990608213426
1975,-34.5834501711184,-58.3951915572818
1976,-34.5817381832313,-58.3918721308588
1977,-34.5950168868571,-58.4132056234427
1978,-34.5937159835932,-58.410071691158
1979,-34.5952683790764,-58.3935386194555
1980,-34.574935804811,-58.3975275678902
1981,-34.593047002121,-58.3946383475652
1982,-34.5945928752364,-58.3999135358239
1983,-34.5946772990763,-58.3902280412267
1984,-34.5886114003503,-58.3986972414646
1985,-34.5921910134326,-58.390003522213
1986,-34.5940331531908,-58.3962343612779
1987,-34.5925394358717,-58.3944158282992
1988,-34.5903553108445,-58.4061428376788
1989,-34.5882863866549,-58.3917141614265
1990,-34.5956223023152,-58.4105659282397
1991,-34.5830488448764,-58.3900892827262
1992,-34.5865362452437,-58.4037415745956
1993,-34.5713741612336,-58.3850875826712
1994,-34.5960434776038,-58.404081730177
1995,-34.5941446521792,-58.3923365576633
1996,-34.5970136567133,-58.4024669428999
1997,-34.5850607917789,-58.3856913584571
1998,-34.5912008719708,-58.388256256946
1999,-34.5909631660747,-58.3891197626428
2000,-34.5908092259595,-58.3929543589919
2001,-34.5874072358932,-58.3994623477285
2002,-34.5902749831671,-58.4012327220627
2003,-34.5942189348732,-58.4088383199254
2004,-34.5942156181248,-58.4076550390476
2005,-34.5938875622242,-58.3913648249487
2006,-34.589229987126,-58.3951510988196
2007,-34.5915013080828,-58.3961102250629
2008,-34.5972624369825,-58.4155671163811
2009,-34.598252898341,-58.4031135059507
2010,-34.5942309134216,-58.4019742068457
2011,-34.5884829931641,-58.3848490600812
2012,-34.5752585243962,-58.3990239583921
2013,-34.5955550120978,-58.3910809710832
2014,-34.5722051875276,-58.3881454787132
2015,-34.5912691506837,-58.4000915186095
2016,-34.5740710353232,-58.3906401570051
2017,-34.5948106072367,-58.4052206638298
2018,-34.5950839179882,-58.4023589800915
2019,-34.5865601702396,-58.3859718818574
2020,-34.577626357504,-58.3912984069706
2021,-34.5943372099795,-58.4134003771573
2022,-34.5914463364504,-58.4003931842657
2023,-34.5904248716341,-58.4058618527748
2024,-34.587588472439,-58.3955205045064
2025,-34.5903901958934,-58.4030486578948
2026,-34.5921112520854,-58.4110595015811
2027,-34.5981081499027,-58.3971398823116
2028,-34.5784870896481,-58.391482632091
2029,-34.5930524648397,-58.4069992196804
2030,-34.5952290518421,-58.4008134602177
2031,-34.5734848286967,-58.3930049375635
2032,-34.5774774167287,-58.3846899595098
2033,-34.5932536585356,-58.4078739058381
2034,-34.5867263154656,-58.4068465417656
2035,-34.5835759870904,-58.3904089281072
2036,-34.5922879732499,-58.3926729833497
2037,-34.594642467374,-58.396835065727
2038,-34.5871678500507,-58.40398845202
2039,-34.5981243689016,-58.4023995991688
2040,-34.5927421186845,-58.3942483506241
2041,-34.5947478687969,-58.395807540538
2042,-34.5741216867789,-58.3910119616086
2043,-34.5842188727919,-58.3980322764541
2044,-34.592368987131,-58.4088449667441
2045,-34.5903423121878,-58.4091430772734
2046,-34.5889129298938,-58.391622300515
2047,-34.5947487886116,-58.3903782743407
2048,-34.5959083878638,-58.3939229787402
2049,-34.5796420825504,-58.3945296323126
2050,-34.5854150678522,-58.3936870486558
2051,-34.5777728918655,-58.396612050538
2052,-34.5879126208396,-58.3894197002872
2053,-34.5748625291991,-58.3829803786282
2054,-34.5775903113551,-58.3862404787385
2055,-34.5889660316429,-58.4043770960788
2056,-34.5772339720985,-58.3973306725312
2057,-34.5743535919685,-58.3969502394419
2058,-34.5918988550275,-58.4105280310586
2059,-34.5991378589326,-58.3957011735225
2060,-34.5970806695948,-58.3874451602183
2061,-34.5800920696695,-58.396074812283
2062,-34.5889560429032,-58.4098315645306
2063,-34.5774883645619,-58.3930035114756
2064,-34.5834988648522,-58.3891295089228
2065,-34.5737907959749,-58.3969101997418
2066,-34.5952150091896,-58.4111509655814
2067,-34.5772099496193,-58.3948297643515
2068,-34.5748810419281,-58.3890737972326
2069,-34.58850476625,-58.3970336507407
2070,-34.5784361877572,-58.3944614062224
2071,-34.5853626170348,-58.3996136900089
2072,-34.5713776847424,-58.3861617652486
2073,-34.5762807596229,-58.3896949672428
2074,-34.5740272812347,-58.3935528913822
2075,-34.5848728914685,-58.3877328730802
2076,-34.5900307843164,-58.4051530638017
2077,-34.5863798937125,-58.3972447897178
2078,-34.5854415426676,-58.3956901057961
2079,-34.5856933772477,-58.3895522148916
2080,-34.5827011008306,-58.3982954403528
2081,-34.5906784186514,-58.3976801972042
2082,-34.5960013188615,-58.4099216233254
2083,-34.5857802676713,-58.3968336470253
2084,-34.5900335857594,-58.4040459320798
2085,-34.5828851312389,-58.3922902004358
2086,-34.5901359157073,-58.4079841032647
2087,-34.590483835858,-58.4035446452001
2088,-34.575297721433,-58.3882480867709
2089,-34.5900559944409,-58.3991060332987
2090,-34.596920102184,-58.4074056089105
2091,-34.595495847335,-58.3960986749345
2092,-34.5715108109488,-58.3982075782033
2093,-34.5879689982856,-58.3902004069581
2094,-34.5779835214455,-58.3836176786078
2095,-34.5981481900619,-58.3904981525922
2096,-34.5742490272758,-58.3897080298107
2097,-34.5898791922092,-58.4060010966127
2098,-34.5714955951036,-58.397666007964
2099,-34.5850751251974,-58.3999173051234
2100,-34.5738926629724,-58.399515699697
2101,-34.5809369812466,-58.3956104106404
2102,-34.5920806727495,-58.4115912568094
2103,-34.5880094593305,-58.3891421533203
2104,-34.5992342766826,-58.3999226576048
2105,-34.5774636714425,-58.3965214384645
2106,-34.589435195828,-58.3863403372648
2107,-34.5740097303407,-58.3969114439756
2108,-34.5800324919006,-58.3936864740105
2109,-34.5958103483385,-58.400502756707
2110,-34.5861140417881,-58.3942551341151
2111,-34.575430540399,-58.3986382915709
2112,-34.5829779480239,-58.3936274122733
2113,-34.5844887552151,-58.3931186165437
2114,-34.5847760814694,-58.3866155033097
2115,-34.5862123705208,-58.3965382650438
2116,-34.5857318855497,-58.3868309037917
2117,-34.5930798702872,-58.3886537800523
2118,-34.5900925337273,-58.4044472076733
2119,-34.5919769364401,-58.4046469568322
2120,-34.5922244432348,-58.3989708757316
2121,-34.5919701314331,-58.3910941295681
2122,-34.5932338494229,-58.408787374344
2123,-34.5873986697824,-58.3919790104042
2124,-34.585933220804,-58.3858389275743
2125,-34.5871525640148,-58.3936871631078
2126,-34.5976030493034,-58.392079913594
2127,-34.5951664559016,-58.4117657390077
2128,-34.5963954204973,-58.3981102674744
2129,-34.5719132431279,-58.3936455517199
2130,-34.5808448544387,-58.3923535160499
2131,-34.5959309965305,-58.3967809002863
2132,-34.5866774666694,-58.3848361349809
2133,-34.5856482892352,-58.3996519682532
2134,-34.5854237621179,-58.3910834032719
2135,-34.5751906146228,-58.4014921499495
2136,-34.5772540567081,-58.3858484502865
2137,-34.5976681116915,-58.3972528750667
2138,-34.5731973395351,-58.4006886133447
2139,-34.5896927501231,-58.3888422696055
2140,-34.5732115584765,-58.386094449672
2141,-34.5872529100938,-58.4078488635695
2142,-34.592641884893,-58.411827490088
2143,-34.5992105609094,-58.3928720575095
2144,-34.5713558475514,-58.389237196249
2145,-34.5936692586083,-58.4019466534222
2146,-34.5895358525068,-58.3917330120827
2147,-34.5723017728326,-58.386268941474
2148,-34.5904240442666,-58.4054127011105
2149,-34.5948725460194,-58.3930465187827
2150,-34.5943145869588,-58.3961869425886
2151,-34.5813593473611,-58.3940267435162
2152,-34.5935656875137,-58.4128459228036
2153,-34.5967572069577,-58.4102173099557
2154,-34.586698774988,-58.400743841176
2155,-34.5902925108577,-58.4015651276682
2156,-34.5887388193718,-58.4025996924639
2157,-34.594850875765,-58.4126858570699
2158,-34.5890824815643,-58.4054146281504
2159,-34.581899608,-58.3950236798608
2160,-34.5962204551906,-58.3999416329112
2161,-34.5817309194098,-58.3920417642723
2162,-34.5888679633453,-58.4051937612806
2163,-34.5976730826507,-58.4054637137234
2164,-34.5841265627378,-58.3956338974688
2165,-34.5778388543751,-58.3927170116315
2166,-34.5906710775103,-58.3940161248536
2167,-34.5898424674588,-58.3940055095333
2168,-34.5770723523393,-58.3927433262461
2169,-34.5911649911213,-58.4109721034134
2170,-34.5767811341662,-58.3958201603299
2171,-34.5860111614971,-58.3880864594295
2172,-34.5718264815046,-58.38780380262
2173,-34.5951241784813,-58.4003921799571
2174,-34.5845593209615,-58.4006166296884
2175,-34.5822085264128,-58.397368108534
2176,-34.5851007032974,-58.3873394510929
2177,-34.5844054751753,-58.4067828668243
2178,-34.5867698834095,-58.3932646981421
2179,-34.5875801118503,-58.4017160338525
2180,-34.5865289049268,-58.3951257999828
2181,-34.5918840805436,-58.390214470592
2182,-34.5910102514748,-58.4027803076654
2183,-34.5974488254112,-58.3988214588271
2184,-34.5885613963756,-58.389970147009
2185,-34.5726452726623,-58.3983992355319
2186,-34.5976609147721,-58.3976474545755
2187,-34.5744865225219,-58.4012784969633
2188,-34.595714116439,-58.4011252462588
2189,-34.5854426249913,-58.3989115371072
2190,-34.5859502278911,-58.3960412845697
2191,-34.5980434026336,-58.4056169242625
2192,-34.5875780191034,-58.4066613575749
2193,-34.5857183157398,-58.3879488244842
2194,-34.5913074047108,-58.4095175278616
2195,-34.5939523062378,-58.4016877669688
2196,-34.5963652849817,-58.4075866413463
2197,-34.587886737703,-58.4055255195979
2198,-34.5983071211376,-58.3993687617355
2199,-34.5851653858384,-58.3868074251749
2200,-34.5767576854521,-58.3882997531758
2201,-34.5937422044063,-58.412173449838
2202,-34.5978298449905,-58.4125596948966
2203,-34.5840279626336,-58.4000231889976
2204,-34.5881200113547,-58.3889955500457
2205,-34.5866685526581,-58.403946727633
2206,-34.5953721446021,-58.403327025352
2207,-34.5937736995405,-58.4053016292663
2208,-34.5793281065894,-58.3957933416409
2209,-34.5972627973199,-58.4122070320223
2210,-34.5870353674076,-58.3937627714702
2211,-34.5877682381015,-58.4086252402433
2212,-34.5937260314983,-58.3953782805492
2213,-34.594524108439,-58.4139173549537
2214,-34.5940743760409,-58.4097311893185
2215,-34.5926637039132,-58.4126847421744
2216,-34.5727245971002,-58.4006749584962
2217,-34.5919518575975,-58.4121991152247
2218,-34.5775862292656,-58.3833293537462
2219,-34.5752819062084,-58.3960990714307
2220,-34.5926811495012,-58.3883067780014
2221,-34.5946235720937,-58.393531410335
2222,-34.5911791104999,-58.3961654081706
2223,-34.5955498590512,-58.3941757730869
2224,-34.5884537694792,-58.3849170274322
2225,-34.5845736882037,-58.3885013217047
2226,-34.5744310870109,-58.3986580565476
2227,-34.5718225836733,-58.3950867556695
2228,-34.577107479705,-58.3891103621365
2229,-34.5826780594287,-58.3902918639496
2230,-34.5934926683892,-58.3896060475525
2231,-34.5909245728435,-58.3925085418677
2232,-34.5957026988169,-58.4031180201614
2233,-34.5956339640558,-58.4131162554862
2234,-34.5834309338627,-58.3939450173793
2235,-34.5941069753623,-58.4019857230891
2236,-34.5852581573935,-58.4029714331362
2237,-34.582125004053,-58.3944273376055
2238,-34.5756507187571,-58.3996091464973
2239,-34.5989198869119,-58.3917653381433
2240,-34.572312781124,-58.3988565755776
2241,-34.5972715115645,-58.4047159367781
2242,-34.5796363004749,-58.3932398500704
2243,-34.5952241121099,-58.4134547007437
2244,-34.5843082231193,-58.3888969166946
2245,-34.5875018161453,-58.3875636079302
2246,-34.5928166542859,-58.4040849158739
2247,-34.571951237681,-58.3860168130201
2248,-34.5946065631817,-58.4080874717044
2249,-34.5756438393659,-58.3957545044957
2250,-34.5969894372601,-58.390589264625
2251,-34.5969178401202,-58.4094003893107
2252,-34.5824574779196,-58.3888356935022
2253,-34.5887453549645,-58.4068783008032
2254,-34.5929493376835,-58.4062057456367
2255,-34.5934843943762,-58.3969778294888
2256,-34.5747730815169,-58.3899015287741
2257,-34.5894692265183,-58.3871650595193
2258,-34.5888543223659,-58.4068563879305
2259,-34.5972764614786,-58.4001416747368
2260,-34.5936811253012,-58.394441462218
2261,-34.5868174542545,-58.4061394689669
2262,-34.5848910651208,-58.402230914636
2263,-34.5820283060167,-58.3970322599946
2264,-34.5885422407021,-58.4022023659317
2265,-34.5873507810605,-58.3967614970618
2266,-34.5878651053192,-58.3846491686094
2267,-34.5874615617919,-58.3999716873321
2268,-34.5907165119397,-58.3993525142121
2269,-34.5890461681436,-58.395468897293
2270,-34.5790587596647,-58.390922200681
2271,-34.5817610273173,-58.3983286248577
2272,-34.5855840923317,-58.3988930175527
2273,-34.594791770746,-58.3979078588025
2274,-34.5868791246358,-58.4068099928972
2275,-34.5877944946259,-58.408702645662
2276,-34.5751401423588,-58.3999620636474
2277,-34.5964883380829,-58.3958828881812
2278,-34.5858216843433,-58.3894285989
2279,-34.5914746162265,-58.4031839629462
2280,-34.5769670592463,-58.3858678977506
2281,-34.5768414470372,-58.3945958648757
2282,-34.5969606669127,-58.3892424587074
2283,-34.5752726262845,-58.3876362174141
2284,-34.583573052608,-58.3995281113443
2285,-34.597071112685,-58.3969792551924
2286,-34.5721293259688,-58.3872869758167
2287,-34.5716286212516,-58.3838701380924
2288,-34.572881264617,-58.3938650110044
2289,-34.5986049441109,-58.3966624112407
2290,-34.5883733329263,-58.3966161262999
2291,-34.5868598619644,-58.3947325169295
2292,-34.5957065056981,-58.4127896181973
2293,-34.586268551132,-58.3972336305815
2294,-34.5775997151129,-58.3947203335611
2295,-34.5851122718844,-58.3901836102435
2296,-34.5840173845514,-58.398725412847
2297,-34.5839865312947,-58.3950383040951
2298,-34.5879937348064,-58.3855849105593
2299,-34.5934492379296,-58.4116854447851
2300,-34.5729267839544,-58.3927779075554
2301,-34.5876147311224,-58.3939457002188
2302,-34.5766308196005,-58.3910610764864
2303,-34.5860373609163,-58.3901552129134
2304,-34.5893733456936,-58.3946111712135
2305,-34.5873657156614,-58.4080697603307
2306,-34.5787516869711,-58.3962847569524
2307,-34.5945145944575,-58.4105536484662
2308,-34.5812224125183,-58.3979604152577
2309,-34.5722135924078,-58.39819022052
2310,-34.5959827071934,-58.389028284331
2311,-34.5987413982611,-58.4010909796873
2312,-34.592571093185,-58.388411045718
2313,-34.5870686151383,-58.3868251018762
2314,-34.5846052150704,-58.3923703861245
2315,-34.5903221325331,-58.4086063838918
2316,-34.5947770837425,-58.4042856622167
2317,-34.5983004375489,-58.3985587449689
2318,-34.5837733948662,-58.3939955743906
2319,-34.5856780190827,-58.4047775652874
2320,-34.5898934204363,-58.4081425279754
2321,-34.5976435881637,-58.3947395623233
2322,-34.5924404825991,-58.3983011905374
2323,-34.5784387214151,-58.3827489259955
2324,-34.5806134915263,-58.3955383835787
2325,-34.5884475496072,-58.3855602345109
2326,-34.5963309977718,-58.3887875341745
2327,-34.5961321627185,-58.3873942970039
2328,-34.5760254878241,-58.3964073324171
2329,-34.5902138202016,-58.3934317343743
2330,-34.5887339246591,-58.395735190875
2331,-34.5865793123147,-58.402495676977
2332,-34.5984750366428,-58.3912152467903
2333,-34.5856332103449,-58.389221635236
2334,-34.5716220287597,-58.3871183499362
2335,-34.5864719237681,-58.3877067378139
2336,-34.5912419117405,-58.3981209582907
2337,-34.5781811882172,-58.391037360064
2338,-34.5943460343176,-58.3940437065243
2339,-34.5962907833235,-58.4061325954644
2340,-34.5967410209123,-58.4055860674501
2341,-34.5833134786839,-58.389220319758
2342,-34.5886304597902,-58.404611478205
2343,-34.5866248571522,-58.3939933337993
2344,-34.5886935979611,-58.3968626093655
2345,-34.5747525384406,-58.3947179613823
2346,-34.5876301486142,-58.4064289044077
2347,-34.5738936039043,-58.3918457945726
2348,-34.5893597738474,-58.4035148587096
2349,-34.5779669825917,-58.3959772707755
2350,-34.593898775477,-58.3936631373582
2351,-34.5811788754036,-58.3912321167871
2352,-34.574954950595,-58.398638864564
2353,-34.5847288806853,-58.3886455660593
2354,-34.5747169043577,-58.3931252107276
2355,-34.580988856345,-58.3936643467612
2356,-34.5949767104493,-58.4128179013046
2357,-34.5932364137773,-58.4115481922776
2358,-34.5862117118283,-58.3900632702196
2359,-34.5990717552245,-58.3870450652907
2360,-34.5768106290585,-58.3933197872997
2361,-34.5748021355339,-58.3948912504118
2362,-34.5961534459147,-58.408661766404
2363,-34.5976769177027,-58.4002056684337
2364,-34.5968764694028,-58.4088749127553
2365,-34.5882077925525,-58.4020901853574
2366,-34.5968545651635,-58.3968398999468
2367,-34.596611269402,-58.4056396484958
2368,-34.5906045162673,-58.4000586772037
2369,-34.5891525381265,-58.3876035490149
2370,-34.5745330019642,-58.3990567242393
2371,-34.5717536605025,-58.3966085210461
2372,-34.5989630189411,-58.3879271183852
2373,-34.5721423034123,-58.3989821054917
2374,-34.5907188925355,-58.3924270391974
2375,-34.5908945091475,-58.3933494338804
2376,-34.5846952435501,-58.3884359245856
2377,-34.584674723424,-58.386709966145
2378,-34.5841890108991,-58.4022605029025
2379,-34.5958797365586,-58.3895337270594
2380,-34.5963246070794,-58.4049321129352
2381,-34.588347137183,-58.3995242318203
2382,-34.5983537694659,-58.3969885621695
2383,-34.5971862976796,-58.3879469256243
2384,-34.5758489315141,-58.3924531341865
2385,-34.5964412734556,-58.3970753056601
2386,-34.5967718496916,-58.3939156060385
2387,-34.5737449847339,-58.3848805142277
2388,-34.5835819837416,-58.3975930980644
2389,-34.5927351289139,-58.3932661924325
2390,-34.5975656195891,-58.3876987573873
2391,-34.5858674263377,-58.3979268225984
2392,-34.5949165224551,-58.3875930889536
2393,-34.5766892096746,-58.3836376944006
2394,-34.5834784218527,-58.3888687105246
2395,-34.5861618427216,-58.3922603016157
2396,-34.5846561433996,-58.3951506700704
2397,-34.5768048676203,-58.3939876948684
2398,-34.5793398979989,-58.3963124669613
2399,-34.5919322597916,-58.4068741082404
2400,-34.5900196301796,-58.4022182200344
2401,-34.5941900249691,-58.4097428563584
2402,-34.5900967464429,-58.3919493352706
2403,-34.5971879239301,-58.3926046414669
2404,-34.5975681100033,-58.4039357071516
2405,-34.5959865397565,-58.4065528659731
2406,-34.5775663477347,-58.3832562310124
2407,-34.5832643465269,-58.3879128497825
2408,-34.5888310036232,-58.3856786224534
2409,-34.5907119010277,-58.401210852843
2410,-34.5973047807711,-58.4046775763834
2411,-34.5918745755583,-58.4015139502326
2412,-34.5852263959787,-58.3942898975679
2413,-34.5953925679264,-58.4140853449055
2414,-34.5914559698911,-58.4085168357686
2415,-34.5919569639934,-58.4047611395974
2416,-34.5943101052455,-58.3880857100155
2417,-34.5957470251069,-58.3891880713796
2418,-34.5929658490265,-58.3938519608861
2419,-34.5887139821139,-58.3977626354072
2420,-34.5964480102811,-58.3909859561517
2421,-34.5874229862944,-58.3886853612809
2422,-34.5770877785121,-58.3845136783066
2423,-34.5886107614435,-58.3898169978358
2424,-34.5984713418313,-58.3936751704762
2425,-34.5828017969733,-58.3940345447566
2426,-34.5883049473967,-58.4038235100553
2427,-34.5931195015537,-58.4097715257232
2428,-34.5773230318886,-58.3909389385581
2429,-34.5787216107552,-58.395608429271
2430,-34.5911001281696,-58.3981462988269
2431,-34.583129446887,-58.3912899513499
2432,-34.5776815754719,-58.3977726586384
2433,-34.5823639053887,-58.3960257779447
2434,-34.5863710300437,-58.3875361772512
2435,-34.5964095961633,-58.4144068541838
2436,-34.588340619634,-58.3991055885218
2437,-34.5875432029604,-58.4073822505655
2438,-34.5965915620566,-58.3940040954153
2439,-34.5721181855611,-58.3934182931137
2440,-34.5881548778717,-58.3984985346141
2441,-34.5859464224817,-58.3937499642405
2442,-34.5807068701857,-58.3916174443784
2443,-34.5878762387807,-58.4057970476699
2444,-34.5732138971445,-58.3987924847154
2445,-34.5861089908463,-58.3892237411505
2446,-34.5856691795773,-58.3988216925694
2447,-34.5872225442391,-58.3957222897655
2448,-34.596220933704,-58.4139273322243
2449,-34.5961733734604,-58.4082301588136
2450,-34.5904539189504,-58.3910683535299
2451,-34.5775234160662,-58.3885324476236
2452,-34.5976090037955,-58.391994563051
2453,-34.5956671228318,-58.3875637784639
2454,-34.5921942668801,-58.4046866907842
2455,-34.5969377671047,-58.4015441546375
2456,-34.572282081421,-58.3933750275293
2457,-34.5908137025232,-58.4067946572237
2458,-34.5728146951178,-58.3843706353024
2459,-34.5894716885592,-58.401265981933
2460,-34.5927684812079,-58.3959705512411
2461,-34.582306597638,-58.3968529783482
2462,-34.586378572376,-58.3883024454257
2463,-34.5863744441821,-58.3970053917118
2464,-34.5831653160134,-58.3982254939945
2465,-34.5964146174602,-58.4014581974739
2466,-34.5766541126715,-58.3891283888539
2467,-34.5752013624031,-58.3986244997671
2468,-34.5776313883933,-58.3899335991777
2469,-34.5939343578871,-58.3944246216027
2470,-34.5917626840352,-58.3947142516
2471,-34.5952279574843,-58.3977904375544
2472,-34.5930220204469,-58.4013889497403
2473,-34.5913386412279,-58.4017520520638
2474,-34.5804025444533,-58.3952379686978
2475,-34.5841242042699,-58.4059915225349
2476,-34.571825834543,-58.3847481117927
2477,-34.5949808161992,-58.4050357074714
2478,-34.5740208624246,-58.3907524604576
2479,-34.590448173739,-58.3925276668818
2480,-34.5957286466277,-58.4061570410835
2481,-34.5967751045157,-58.3932493923711
2482,-34.5845566358286,-58.398169111103
2483,-34.5848403862256,-58.3897920012283
2484,-34.5923256783311,-58.3950227257378
2485,-34.593336461938,-58.4048736356112
2486,-34.5936575253155,-58.3944643308262
2487,-34.5977214371382,-58.4143018926564
2488,-34.5869416927265,-58.3989083714713
2489,-34.5988987941222,-58.3915748206911
2490,-34.5881957425112,-58.4057366697646
2491,-34.5971983254987,-58.3997934271028
2492,-34.595250455786,-58.4062372607223
2493,-34.5956901346126,-58.4004521360903
2494,-34.5847161205628,-58.3965237542614
2495,-34.5822974188428,-58.3890115112777
2496,-34.5716037216672,-58.3860178594976
2497,-34.5742220244206,-58.3993952996331
2498,-34.5863491302589,-58.397765182795
2499,-34.5887007381287,-58.4071059123653
2500,-34.5851708544961,-58.405636967376
2501,-34.5818263192981,-58.3959672228505
2502,-34.5984164153779,-58.3986611617909
2503,-34.5846237920452,-58.4022470974247
2504,-34.587765896718,-58.391100390993
2505,-34.5741759899991,-58.3904320385463
2506,-34.5904546506635,-58.4018765449871
2507,-34.5733912852099,-58.3943218803013
2508,-34.5957121343457,-58.4136204797153
2509,-34.5887619154258,-58.4051534897511
2510,-34.5834017341731,-58.3918994201059
2511,-34.5878125615525,-58.3911385499878
2512,-34.5739398955554,-58.399852051111
2513,-34.5774378064409,-58.3830355714213
2514,-34.5971061061566,-58.3921951561876
2515,-34.5894091205334,-58.3998978651937
2516,-34.5887114629873,-58.3977597691056
2517,-34.5768313290023,-58.3958526337471
2518,-34.5946614370125,-58.4109725233563
2519,-34.5967955169812,-58.3990422773637
2520,-34.5954822237006,-58.38907662738
2521,-34.5966354330727,-58.3920228952926
2522,-34.587390970292,-58.3880510777263
2523,-34.5932354038394,-58.410557443057
2524,-34.5973701737091,-58.406157296183
2525,-34.5768963008185,-58.3947003001064
2526,-34.5910812647825,-58.4056830376579
2527,-34.5967336368292,-58.4006673771392
2528,-34.5976096464801,-58.4142940021119
2529,-34.5902256607773,-58.3994499518469
2530,-34.5869754028299,-58.3934688264529
2531,-34.5957805146402,-58.411156900418
2532,-34.5892116372343,-58.3931714870198
2533,-34.5953967364745,-58.4147728873871
2534,-34.5885617956388,-58.3930925764738
2535,-34.5845429961606,-58.3947326349101
2536,-34.5938017574527,-58.408751887168
2537,-34.5885659951411,-58.3944011282515
2538,-34.5802097785449,-58.3915821552273
2539,-34.5802445733011,-58.392257517595
2540,-34.5942121017923,-58.4098281866194
2541,-34.5877875684467,-58.3995866560549
2542,-34.5842920461256,-58.4016590514094
2543,-34.5810855611295,-58.3960967804397
2544,-34.5825332658994,-58.3915582362989
2545,-34.5878173862283,-58.3965906355796
2546,-34.5900306446696,-58.4103264501247
2547,-34.5923185325035,-58.4010071389835
2548,-34.5782677510822,-58.3956067910492
2549,-34.585207824236,-58.3859146245868
2550,-34.5850157804654,-58.4056629278391
2551,-34.5955272609733,-58.40820936107
2552,-34.5778197593445,-58.3959949173859
2553,-34.5968755689573,-58.3878351487746
2554,-34.5893915488871,-58.4057182780433
2555,-34.5955069973662,-58.3876512586606
2556,-34.5818603817605,-58.3944326462576
2557,-34.586411657866,-58.4015287460062
2558,-34.5853424106949,-58.4044334444784
2559,-34.5948448373255,-58.4009250666743
2560,-34.5870253501454,-58.4048334605966
2561,-34.5891174513,-58.4080603796939
2562,-34.5856610281582,-58.3987243724414
2563,-34.5893816456522,-58.4093814770471
2564,-34.5938321998633,-58.404198447951
2565,-34.5830745895609,-58.3971040409374
2566,-34.5923612362454,-58.4124061454703
2567,-34.5817457840101,-58.3912671341111
2568,-34.5936346496119,-58.3940308926968
2569,-34.5905259885144,-58.3932573216507
2570,-34.5821590970265,-58.3915668643468
2571,-34.5762196113426,-58.3953992138223
2572,-34.582460151844,-58.3939367728852
2573,-34.5828249471106,-58.3910442582992
2574,-34.59804079282,-58.3969933852864
2575,-34.571617991349,-58.3976335895554
2576,-34.591133478549,-58.4060041663376
2577,-34.5753423559794,-58.3877842566786
2578,-34.592145411537,-58.3949187088937
2579,-34.585594080892,-58.4047732750256
2580,-34.5938627012017,-58.411346537309
2581,-34.5981239076236,-58.3920919238241
2582,-34.5848363528786,-58.4050539488512
2583,-34.584081866717,-58.3867758148501
2584,-34.5971415898957,-58.3987463712341
2585,-34.5895026979855,-58.4058093214386
2586,-34.5938750111269,-58.4002500395787
2587,-34.5830336373691,-58.3931181099219
2588,-34.5933021460588,-58.4017961484137
2589,-34.596205345871,-58.3958244611862
2590,-34.584255945171,-58.389204554269
2591,-34.5819807724112,-58.3895181294446
2592,-34.5891909881921,-58.3856144238631
2593,-34.573644771051,-58.3834863060066
2594,-34.586164704347,-58.3936902785071
2595,-34.5861306897711,-58.3983471698016
2596,-34.588093793138,-58.3969026579358
2597,-34.5752323114583,-58.3954252836553
2598,-34.5721426268552,-58.385986785696
2599,-34.5946137346717,-58.402164382742
2600,-34.5903611879316,-58.4007398804478
2601,-34.5900509339052,-58.3958197672532
2602,-34.5753557975253,-58.3948911819942
2603,-34.5759337039868,-58.3942585800831
2604,-34.5768902046208,-58.3849835073687
2605,-34.5874095292309,-58.3949736621708
2606,-34.5828671551403,-58.3978673015327
2607,-34.5879684802297,-58.3885433149848
2608,-34.5834619278057,-58.3875765512988
2609,-34.571961679459,-58.3836621840012
2610,-34.5858087709532,-58.4069712033934
2611,-34.5824362674307,-58.3919420407254
2612,-34.5981390327173,-58.3875694954809
2613,-34.5947693373395,-58.3920338043273
2614,-34.5870571674245,-58.384432142302
2615,-34.5767071652598,-58.3858692065756
2616,-34.5990014158949,-58.3974856759582
2617,-34.5976533700463,-58.4025253348258
2618,-34.5947927907705,-58.4024389404158
2619,-34.5939382726884,-58.4007340265249
2620,-34.5871776432641,-58.3953193324802
2621,-34.5759531720219,-58.3827061408324
2622,-34.5898878949232,-58.4093599504432
2623,-34.5959200556448,-58.3904688377016
2624,-34.5974110452593,-58.3945359144323
2625,-34.5901990707594,-58.3986991872672
2626,-34.5949988242426,-58.3974939801118
2627,-34.593885106284,-58.3946681244513
2628,-34.5988665044025,-58.3968002267887
2629,-34.5872994105335,-58.385037175622
2630,-34.5795678898972,-58.3913087820092
2631,-34.5960061882616,-58.4146133013276
2632,-34.5967217707091,-58.3994224013747
2633,-34.5874528584405,-58.3863236446145
2634,-34.5922870742665,-58.4021168704173
2635,-34.5913875911746,-58.4007529918018
2636,-34.5927124646331,-58.3919296745759
2637,-34.5834388717939,-58.3913614970682
2638,-34.5954551492632,-58.4118713003709
2639,-34.5825994052312,-58.3967295445462
2640,-34.5897871579564,-58.4027970108013
2641,-34.5948757403882,-58.3923965431314
2642,-34.5756380968796,-58.3875805908812
2643,-34.5870967841555,-58.3921319754036
2644,-34.5899636385943,-58.4016272851993
2645,-34.5901071684941,-58.3934708227138
2646,-34.5713721809245,-58.3980806295924
2647,-34.5839421314191,-58.397649041105
2648,-34.5746408850795,-58.4003918716564
2649,-34.5746314779734,-58.3910476073493
2650,-34.5893973705745,-58.3952888239806
2651,-34.5838474226952,-58.3902299988556
2652,-34.5948145961191,-58.3953550962913
2653,-34.5727743342704,-58.3975583285906
2654,-34.5922251073405,-58.403804216665
2655,-34.5971527190558,-58.4125778636522
2656,-34.58632024497,-58.3962226882919
2657,-34.5900262243949,-58.3898603599749
2658,-34.5933053615027,-58.39026316428
2659,-34.5844198488966,-58.3963952353748
2660,-34.5878791423204,-58.4066769888594
2661,-34.5854829084163,-58.390500914101
2662,-34.593892549248,-58.4042800989804
2663,-34.5755942280676,-58.3871495569556
2664,-34.5714265823237,-58.3833112323901
2665,-34.5975221470539,-58.4141664616022
2666,-34.5852963448807,-58.393117889118
2667,-34.5900739149151,-58.4016702100795
2668,-34.5905547941556,-58.3955531146671
2669,-34.585196149508,-58.4040484017147
2670,-34.5909281385021,-58.3965217541979
2671,-34.5922815389861,-58.3950371365426
2672,-34.590171776681,-58.3999205732847
2673,-34.5902286138617,-58.391773696452
2674,-34.5774929795704,-58.3853970698416
2675,-34.5945683742734,-58.4109645756697
2676,-34.5945438252182,-58.412727985419
2677,-34.585371892597,-58.395695459902
2678,-34.5869102464327,-58.3991355604826
2679,-34.5861678823879,-58.4012331680449
2680,-34.5922972348772,-58.4093632855026
2681,-34.5977182173566,-58.4056792055095
2682,-34.5729733553227,-58.3860000395274
2683,-34.5930015165144,-58.4083745908451
2684,-34.5830310154693,-58.3974173582519
2685,-34.576360766002,-58.3967391507357
2686,-34.5861656432841,-58.3978597836928
2687,-34.5876056670888,-58.3972896006785
2688,-34.5967112822236,-58.4079537853077
2689,-34.5929069850539,-58.4069137936685
2690,-34.5757095620178,-58.3971265654907
2691,-34.5895481404338,-58.3970659371027
2692,-34.5774113303988,-58.3877342374574
2693,-34.5734989976116,-58.3940780237788
2694,-34.5953071858716,-58.4102023339053
2695,-34.586937744169,-58.4064211598002
2696,-34.5947435133317,-58.4086839251923
2697,-34.5829616235659,-58.3966191402395
2698,-34.5969829330238,-58.411026523852
2699,-34.5979901814517,-58.4041680926632
2700,-34.5721474393152,-58.3974205625052
2701,-34.5725884829676,-58.3934282904762
2702,-34.5953433976258,-58.4054834262397
2703,-34.5940708639964,-58.4037473792752
2704,-34.5840341296643,-58.4062913789047
2705,-34.5839069171188,-58.3945138072322
2706,-34.5840192606624,-58.3916299874636
2707,-34.5926353549695,-58.4104911792374
2708,-34.5984875624552,-58.3898888302829
2709,-34.5870118108142,-58.3903905062824
2710,-34.5904737406952,-58.3900408047151
2711,-34.5853282053453,-58.4046634475705
2712,-34.5885287247758,-58.3867633138193
2713,-34.575331410404,-58.3902514570552
2714,-34.5981244786933,-58.3939604786944
2715,-34.5951994895695,-58.3965430617549
2716,-34.597236372695,-58.3898154135478
2717,-34.5985671925543,-58.3942910064375
2718,-34.5872458416448,-58.3927789919922
2719,-34.5722334944593,-58.4000799817587
2720,-34.5912795778132,-58.3877042945134
2721,-34.5880998876745,-58.4092525592279
2722,-34.5874822905865,-58.3882280827974
2723,-34.5795862879008,-58.3959944712755
2724,-34.5973557039307,-58.3992649747265
2725,-34.5878084139452,-58.3950882190994
2726,-34.5889880035865,-58.3853941397668
2727,-34.5846235448774,-58.3956203602356
2728,-34.5956159816027,-58.3979556490366
2729,-34.5950646256561,-58.3875584239745
2730,-34.5892856211232,-58.4087316140672
2731,-34.5842894243959,-58.4037090415206
2732,-34.5861685381775,-58.3863959292174
2733,-34.583928566393,-58.3908730947069
2734,-34.571957810028,-58.3967641790044
2735,-34.5728220560425,-58.3916743318371
2736,-34.5939609252907,-58.3889929024934
2737,-34.5928198438003,-58.3887782050125
2738,-34.5944629443443,-58.413326852105
2739,-34.5991132074511,-58.3893907665574
2740,-34.5946441345927,-58.4093366302301
2741,-34.5889683897646,-58.3887064478491
2742,-34.5846666994083,-58.405443667971
2743,-34.5735445366412,-58.3951140243369
2744,-34.5915868155951,-58.3901126615649
2745,-34.5739462310604,-58.3905561447552
2746,-34.5923472099558,-58.3899930852509
2747,-34.5963045099094,-58.3925918922317
2748,-34.5853223963285,-58.3902498706265
2749,-34.5730395142006,-58.3966095835709
2750,-34.5950270760187,-58.3889604171677
2751,-34.5919817064986,-58.3975292370558
2752,-34.5876322838933,-58.4072529970163
2753,-34.593368725611,-58.4004038647682
2754,-34.5929960578764,-58.3944916732852
2755,-34.5962825629607,-58.3952674218694
2756,-34.5719730756741,-58.3839754862257
2757,-34.5900543598615,-58.4047511814303
2758,-34.5878546163653,-58.3982726316161
2759,-34.5852491582667,-58.3871457378591
2760,-34.5724544226384,-58.3973877549084
2761,-34.5727598681426,-58.3972307918993
2762,-34.5877882562695,-58.391799094644
2763,-34.5924585184589,-58.4085899001297
2764,-34.5756545034911,-58.3981702625548
2765,-34.5908928658619,-58.389686575444
2766,-34.5962582542189,-58.3918859474044
2767,-34.5764027771802,-58.3968536301635
2768,-34.5936521588066,-58.3875072139808
2769,-34.5862113706523,-58.3924670382088
2770,-34.5898846463638,-58.3931500361805
2771,-34.5930617133782,-58.3894561205822
2772,-34.5978779699083,-58.4099960919645
2773,-34.5967580454273,-58.4047322728787
2774,-34.5743946901699,-58.3969370647117
2775,-34.5904514929606,-58.3937209734604
2776,-34.5945712271283,-58.3939358546591
2777,-34.5897587169631,-58.3935783404438
2778,-34.5972541110078,-58.3924247041933
2779,-34.5940165959938,-58.3904192330572
2780,-34.581624025367,-58.3900500159394
2781,-34.5976211374143,-58.4009174098574
2782,-34.5891489771152,-58.3954024449335
2783,-34.5734136286968,-58.4005614783338
2784,-34.5782937101602,-58.3911056305241
2785,-34.5880617544403,-58.3873486958993
2786,-34.5885994349356,-58.4029445701323
2787,-34.5765667862077,-58.3997702132874
2788,-34.5869295830587,-58.4066444506101
2789,-34.5852475741094,-58.3861160133341
2790,-34.5915337016611,-58.3984179908939
2791,-34.5932750094588,-58.3938958070145
2792,-34.5944077120276,-58.3880806303587
2793,-34.5862362975955,-58.3852346105047
2794,-34.5904672219526,-58.3890875564197
2795,-34.5953180012355,-58.4131257614978
2796,-34.5881162424045,-58.3975370896094
2797,-34.5712578955324,-58.3995204360078
2798,-34.5730479234014,-58.4009616248552
2799,-34.592608580847,-58.3985513995442
2800,-34.575438426534,-58.3936944608548
2801,-34.5769409236148,-58.3886438148868
2802,-34.5819577419541,-58.3964716721083
2803,-34.5851117575008,-58.3975753343237
2804,-34.5911401950225,-58.3890061944937
2805,-34.5896653439151,-58.3970075457375
2806,-34.5977955908468,-58.3963668062768
2807,-34.5961486634677,-58.4117330904614
2808,-34.5814327492968,-58.3926867770154
2809,-34.5743182948646,-58.4005527035797
2810,-34.5862948856016,-58.4049476891904
2811,-34.5835707086893,-58.397635413875
2812,-34.5738662211067,-58.3846952447003
2813,-34.5762534658555,-58.400085538424
2814,-34.5848365737498,-58.3914708884983
2815,-34.5970304729609,-58.3887686499492
2816,-34.5838169833179,-58.3997968830418
2817,-34.5812123666307,-58.3960686093333
2818,-34.5929765174724,-58.3999683133783
2819,-34.5729162355535,-58.3924323848049
2820,-34.5892484356287,-58.3980673259188
2821,-34.5765740596432,-58.3962055508952
2822,-34.5843090081087,-58.3893711534767
2823,-34.5761600723843,-58.3999548614108
2824,-34.5821252059105,-58.3969750354842
2825,-34.5718907882336,-58.3883876728771
2826,-34.5883796103082,-58.403877982073
2827,-34.5862412879872,-58.3899984017849
2828,-34.5848401167648,-58.3985371675378
2829,-34.5712612113017,-58.3967575976509
2830,-34.5949229855336,-58.389917214393
2831,-34.5871578410383,-58.4052692062402
2832,-34.597937987886,-58.3983585406235
2833,-34.581633103946,-58.3966415361556
2834,-34.5942099503662,-58.4022240256481
2835,-34.5775914259523,-58.3852341781826
2836,-34.5754319088821,-58.4011947034172
2837,-34.5825879161419,-58.3908458632264
2838,-34.5924158674509,-58.392035323255
2839,-34.5967638821265,-58.3983444630401
2840,-34.5880914836625,-58.392100344108
2841,-34.5936909101574,-58.4093079359506
2842,-34.5781269984147,-58.3853778100603
2843,-34.5728222007795,-58.3923556411305
2844,-34.585222547891,-58.399072397119
2845,-34.5762215034925,-58.3917481513483
2846,-34.5932720757876,-58.4021432857656
2847,-34.5943800528655,-58.3878995575573
2848,-34.5846323694666,-58.3916967218863
2849,-34.5772735456101,-58.388405153638
2850,-34.5919669466275,-58.3954397152259
2851,-34.5925023842813,-58.3910733607505
2852,-34.585211362073,-58.3959635246145
2853,-34.5965755011206,-58.3969267529128
2854,-34.5952835011203,-58.4064402933732
2855,-34.5908226166409,-58.3959679413532
2856,-34.5951357423575,-58.4050437778342
2857,-34.5846033626158,-58.4056613209663
2858,-34.5986028280231,-58.3968145726213
2859,-34.577735985961,-58.3888295019325
2860,-34.5958103975698,-58.404187939842
2861,-34.5975192530478,-58.3877708002326
2862,-34.5944980512306,-58.4106430082617
2863,-34.5948876166586,-58.3886340093213
2864,-34.5928974585441,-58.4057584768038
2865,-34.5849688932351,-58.3970323753283
2866,-34.5939330821855,-58.407512317926
2867,-34.5909242744227,-58.3993687848347
2868,-34.57438529122,-58.3893450430972
2869,-34.5720955294819,-58.3882594765957
2870,-34.5926637233298,-58.4098527808678
2871,-34.5911344083721,-58.4021632709224
2872,-34.5824463608977,-58.3957658339877
2873,-34.5892847913785,-58.3881161425452
2874,-34.5754372369353,-58.3993388968033
2875,-34.5821706090239,-58.3907756173804
2876,-34.5886238677663,-58.4024180774477
2877,-34.5759883791833,-58.3887197182239
2878,-34.5840327479827,-58.3868713882193
2879,-34.5845701451759,-58.3997017582095
2880,-34.5838585640558,-58.3922129246152
2881,-34.5877526899232,-58.3897112868957
2882,-34.5949676256294,-58.4063757023082
2883,-34.5937819058529,-58.4113860000916
2884,-34.5949978973051,-58.3935557479884
2885,-34.582814680577,-58.3924369275738
2886,-34.5847788702072,-58.3985641092849
2887,-34.5857139120678,-58.3987406791757
2888,-34.5927285915147,-58.3878434804455
2889,-34.5875834447889,-58.4064336562068
2890,-34.5941337592685,-58.4021098165613
2891,-34.594862005874,-58.3911703594955
2892,-34.5740204446006,-58.3907447161653
2893,-34.5746778450285,-58.3951906667148
2894,-34.5893006685441,-58.3957904808525
2895,-34.5913939861078,-58.3907831905822
2896,-34.5958971329633,-58.410690058404
2897,-34.596809987771,-58.4083431533548
2898,-34.5955411418892,-58.4065448717565
2899,-34.5734344469213,-58.3908509840994
2900,-34.5912451975266,-58.3900349442978
2901,-34.585357869049,-58.4027688810765
2902,-34.5956267748685,-58.3942201791293
2903,-34.5911568679132,-58.3891903318325
2904,-34.5976279221022,-58.3953844520487
2905,-34.5874180284279,-58.4081189548068
2906,-34.5971642504475,-58.4074952227939
2907,-34.5836481209168,-58.4033223599035
2908,-34.5927788483411,-58.407974128696
2909,-34.5758506824397,-58.3982080633624
2910,-34.5849345027644,-58.3941539968689
2911,-34.5984030488776,-58.3880248370616
2912,-34.5851363152554,-58.3861043537362
2913,-34.5736851439507,-58.3967044866239
2914,-34.5844889277401,-58.4022063274535
2915,-34.5765730045958,-58.3889694901324
2916,-34.5825128001029,-58.3971272716673
2917,-34.5733703388363,-58.3985436889177
2918,-34.5858054360054,-58.3859049102703
2919,-34.5972484381113,-58.4124017260323
2920,-34.5817343637574,-58.3950151229991
2921,-34.5905408600951,-58.3936797587306
2922,-34.5869543893883,-58.3870064678733
2923,-34.5950546999834,-58.4096376039188
2924,-34.59426975039,-58.3875342133007
2925,-34.5858887685087,-58.406248486445
2926,-34.588390999655,-58.4092918700355
2927,-34.5953349396858,-58.4146256236059
2928,-34.5760119051867,-58.3935606380108
2929,-34.5916219611926,-58.3971001588619
2930,-34.5985696127125,-58.402966615053
2931,-34.5765349105822,-58.3894377967588
2932,-34.5821298400792,-58.3940534604194
2933,-34.5878795332428,-58.4055914868475
2934,-34.5780822150814,-58.3921509820251
2935,-34.5948642263604,-58.4073505182967
2936,-34.5972228350376,-58.4126229003236
2937,-34.5986362154997,-58.391268740644
2938,-34.5931421592277,-58.3979355656765
2939,-34.5844919546763,-58.3994161051625
2940,-34.5796816673243,-58.3972170738495
2941,-34.5917063890336,-58.3879434830039
2942,-34.5744194801433,-58.3912974751065
2943,-34.5893366214653,-58.3936757993531
2944,-34.584553509325,-58.3903819154628
2945,-34.5751623429948,-58.3908956574345
2946,-34.5976279370411,-58.3963796722361
2947,-34.5891155323577,-58.4076954185325
2948,-34.5898323105633,-58.3935488391887
2949,-34.5861563209608,-58.4026166005594
2950,-34.593350513856,-58.4136233592401
2951,-34.5941689430326,-58.4102704462775
2952,-34.5839054174682,-58.4061777874101
2953,-34.5789519037571,-58.3952305516758
2954,-34.595328560419,-58.4005917879665
2955,-34.5910362018402,-58.389198051727
2956,-34.5728557276937,-58.3954876989412
2957,-34.5979824522102,-58.3991640542962
2958,-34.5842679304744,-58.3865284635514
2959,-34.5941668836615,-58.4105737652867
2960,-34.5904856356241,-58.4054343677663
2961,-34.5939961189087,-58.3964588441381
2962,-34.5784907049018,-58.3951046746059
2963,-34.5739721120893,-58.3974609130871
2964,-34.5980971405655,-58.3938327985638
2965,-34.5760097701843,-58.3978193167869
2966,-34.5738391376434,-58.4012482062971
2967,-34.5878018698366,-58.3975091030058
2968,-34.5750864750012,-58.3941298995339
2969,-34.5762771082811,-58.3840287263177
2970,-34.5771545294406,-58.3977516799526
